time_seconds,voltage_raw
0.0,1881.0
0.0,1881.0
0.0,1943.0
0.0,1945.0
0.0,1889.0
0.0,1868.0
0.0,1915.0
0.0,1931.0
0.0,1882.0
0.0,1865.0
0.0,1909.0
0.0,1949.0
0.0,1903.0
0.0,1867.0
0.0,1903.0
0.0,1965.0
0.0,1958.0
0.0,1935.0
0.0,1976.0
0.0,2031.0
0.0,2022.0
0.0,1973.0
0.0,1975.0
0.0,2036.0
0.0,2035.0
0.0,1966.0
0.0,1935.0
0.0,1963.0
0.0,1966.0
0.0,1901.0
0.0,1863.0
0.0,1891.0
0.0,1903.0
0.0,1855.0
0.0,1828.0
0.0,1869.0
0.0,1899.0
0.0,1865.0
0.0,1820.0
0.0,1851.0
0.0,1900.0
0.0,1876.0
0.0,1821.0
0.0,1828.0
0.0,1882.0
0.0,1876.0
0.0,1823.0
0.0,1835.0
0.0,1883.0
0.0,1848.0
0.0,1737.0
0.0,1707.0
0.0,1775.0
0.0,1804.0
0.0,1874.0
0.0,2125.0
0.01225137710571289,2713.0
0.01225137710571289,3365.0
0.01225137710571289,3510.0
0.01225137710571289,3098.0
0.012996673583984375,2451.0
0.012996673583984375,1819.0
0.012996673583984375,1445.0
0.012996673583984375,1356.0
0.013800621032714844,1453.0
0.013800621032714844,1597.0
0.013800621032714844,1683.0
0.013800621032714844,1705.0
0.013800621032714844,1767.0
0.013800621032714844,1823.0
0.013800621032714844,1813.0
0.013800621032714844,1768.0
0.015172481536865234,1774.0
0.015172481536865234,1829.0
0.015172481536865234,1831.0
0.015172481536865234,1785.0
0.015172481536865234,1787.0
0.015172481536865234,1843.0
0.015172481536865234,1855.0
0.015172481536865234,1807.0
0.015172481536865234,1785.0
0.015172481536865234,1831.0
0.015172481536865234,1853.0
0.015172481536865234,1817.0
0.015172481536865234,1787.0
0.015172481536865234,1821.0
0.015172481536865234,1851.0
0.015172481536865234,1819.0
0.018235445022583008,1786.0
0.018235445022583008,1815.0
0.018235445022583008,1846.0
0.018235445022583008,1828.0
0.018235445022583008,1799.0
0.018235445022583008,1813.0
0.018235445022583008,1835.0
0.018235445022583008,1812.0
0.018235445022583008,1773.0
0.020061016082763672,1780.0
0.020612239837646484,1805.0
0.020612239837646484,1788.0
0.020612239837646484,1753.0
0.020612239837646484,1765.0
0.020612239837646484,1806.0
0.020612239837646484,1814.0
0.020612239837646484,1784.0
0.020612239837646484,1783.0
0.020612239837646484,1811.0
0.020612239837646484,1817.0
0.022626876831054688,1781.0
0.022626876831054688,1768.0
0.022626876831054688,1805.0
0.022626876831054688,1828.0
0.022626876831054688,1791.0
0.022626876831054688,1779.0
0.022626876831054688,1819.0
0.022626876831054688,1849.0
0.022626876831054688,1839.0
0.022626876831054688,1817.0
0.022626876831054688,1847.0
0.022626876831054688,1902.0
0.022626876831054688,1912.0
0.022626876831054688,1891.0
0.02463674545288086,1911.0
0.02463674545288086,1971.0
0.02463674545288086,1976.0
0.02463674545288086,1931.0
0.02463674545288086,1939.0
0.02463674545288086,1991.0
0.02463674545288086,2005.0
0.02463674545288086,1951.0
0.0262300968170166,1940.0
0.0262300968170166,1990.0
0.0262300968170166,2009.0
0.0262300968170166,1961.0
0.0262300968170166,1937.0
0.0262300968170166,1976.0
0.0262300968170166,2009.0
0.0262300968170166,1965.0
0.0262300968170166,1920.0
0.029234886169433594,1964.0
0.029234886169433594,2015.0
0.029234886169433594,1983.0
0.029234886169433594,1939.0
0.029234886169433594,1951.0
0.029234886169433594,2005.0
0.029234886169433594,1989.0
0.029234886169433594,1929.0
0.029234886169433594,1944.0
0.029234886169433594,2005.0
0.029234886169433594,2013.0
0.029234886169433594,1962.0
0.029234886169433594,1957.0
0.029234886169433594,2007.0
0.029234886169433594,2021.0
0.029234886169433594,1964.0
0.029234886169433594,1944.0
0.029234886169433594,1995.0
0.029234886169433594,2014.0
0.029234886169433594,1963.0
0.029234886169433594,1933.0
0.029234886169433594,1979.0
0.029234886169433594,2019.0
0.029234886169433594,1965.0
0.029234886169433594,1917.0
0.029234886169433594,1957.0
0.029234886169433594,2004.0
0.029234886169433594,1967.0
0.029234886169433594,1914.0
0.029234886169433594,1935.0
0.029234886169433594,1980.0
0.029234886169433594,1962.0
0.029234886169433594,1903.0
0.03655529022216797,1915.0
0.03655529022216797,1976.0
0.037172555923461914,1974.0
0.03886294364929199,1915.0
0.03886294364929199,1908.0
0.03886294364929199,1958.0
0.03886294364929199,1964.0
0.040883541107177734,1902.0
0.040883541107177734,1882.0
0.040883541107177734,1928.0
0.040883541107177734,1951.0
0.040883541107177734,1907.0
0.042934417724609375,1881.0
0.042934417724609375,1927.0
0.042934417724609375,1961.0
0.042934417724609375,1925.0
0.042934417724609375,1895.0
0.042934417724609375,1949.0
0.042934417724609375,2023.0
0.042934417724609375,2020.0
0.042934417724609375,1975.0
0.042934417724609375,2003.0
0.042934417724609375,2067.0
0.042934417724609375,2053.0
0.042934417724609375,1991.0
0.042934417724609375,1999.0
0.042934417724609375,2055.0
0.042934417724609375,2025.0
0.042934417724609375,1949.0
0.042934417724609375,1941.0
0.042934417724609375,1981.0
0.042934417724609375,1963.0
0.042934417724609375,1881.0
0.042934417724609375,1845.0
0.042934417724609375,1891.0
0.042934417724609375,1913.0
0.042934417724609375,1868.0
0.042934417724609375,1842.0
0.042934417724609375,1887.0
0.042934417724609375,1919.0
0.042934417724609375,1881.0
0.042934417724609375,1837.0
0.042934417724609375,1869.0
0.042934417724609375,1915.0
0.042934417724609375,1890.0
0.042934417724609375,1845.0
0.042934417724609375,1869.0
0.042934417724609375,1929.0
0.042934417724609375,1909.0
0.042934417724609375,1854.0
0.042934417724609375,1850.0
0.042934417724609375,1848.0
0.042934417724609375,1779.0
0.042934417724609375,1737.0
0.042934417724609375,1805.0
0.042934417724609375,1940.0
0.042934417724609375,2105.0
0.042934417724609375,2405.0
0.042934417724609375,2995.0
0.042934417724609375,3623.0
0.042934417724609375,3667.0
0.042934417724609375,3045.0
0.042934417724609375,2289.0
0.042934417724609375,1751.0
0.042934417724609375,1519.0
0.042934417724609375,1445.0
0.042934417724609375,1447.0
0.042934417724609375,1547.0
0.05266714096069336,1676.0
0.05266714096069336,1734.0
0.05266714096069336,1743.0
0.05266714096069336,1791.0
0.05266714096069336,1849.0
0.05266714096069336,1831.0
0.05266714096069336,1774.0
0.05370593070983887,1785.0
0.054036617279052734,1843.0
0.054036617279052734,1833.0
0.054036617279052734,1773.0
0.054036617279052734,1779.0
0.054036617279052734,1850.0
0.054036617279052734,1865.0
0.054036617279052734,1812.0
0.054036617279052734,1791.0
0.054036617279052734,1850.0
0.054036617279052734,1867.0
0.054036617279052734,1818.0
0.054036617279052734,1789.0
0.055944204330444336,1835.0
0.055944204330444336,1875.0
0.055944204330444336,1822.0
0.055944204330444336,1769.0
0.055944204330444336,1799.0
0.055944204330444336,1835.0
0.055944204330444336,1817.0
0.055944204330444336,1777.0
0.055944204330444336,1816.0
0.055944204330444336,1869.0
0.055944204330444336,1845.0
0.055944204330444336,1775.0
0.055944204330444336,1779.0
0.055944204330444336,1837.0
0.055944204330444336,1835.0
0.055944204330444336,1768.0
0.055944204330444336,1753.0
0.055944204330444336,1822.0
0.055944204330444336,1837.0
0.055944204330444336,1771.0
0.055944204330444336,1747.0
0.055944204330444336,1801.0
0.055944204330444336,1833.0
0.055944204330444336,1780.0
0.055944204330444336,1739.0
0.055944204330444336,1780.0
0.055944204330444336,1827.0
0.055944204330444336,1801.0
0.055944204330444336,1765.0
0.055944204330444336,1805.0
0.055944204330444336,1865.0
0.055944204330444336,1847.0
0.055944204330444336,1813.0
0.055944204330444336,1848.0
0.06115388870239258,1914.0
0.06115388870239258,1913.0
0.06115388870239258,1877.0
0.06115388870239258,1897.0
0.06115388870239258,1973.0
0.06115388870239258,1989.0
0.06115388870239258,1949.0
0.06115388870239258,1948.0
0.06115388870239258,2007.0
0.06115388870239258,2024.0
0.06115388870239258,1971.0
0.06115388870239258,1961.0
0.06115388870239258,2018.0
0.06115388870239258,2042.0
0.06115388870239258,1983.0
0.06115388870239258,1944.0
0.06115388870239258,1977.0
0.06115388870239258,2015.0
0.06115388870239258,1977.0
0.06115388870239258,1934.0
0.06115388870239258,1973.0
0.06115388870239258,2024.0
0.06115388870239258,1997.0
0.06115388870239258,1939.0
0.06115388870239258,1955.0
0.06115388870239258,2005.0
0.06115388870239258,1989.0
0.06115388870239258,1931.0
0.06115388870239258,1944.0
0.06115388870239258,2009.0
0.06115388870239258,2003.0
0.06115388870239258,1940.0
0.06115388870239258,1933.0
0.06115388870239258,1991.0
0.06115388870239258,2007.0
0.06115388870239258,1945.0
0.06115388870239258,1927.0
0.06115388870239258,1977.0
0.06115388870239258,1992.0
0.06115388870239258,1935.0
0.06115388870239258,1898.0
0.06115388870239258,1947.0
0.06115388870239258,1984.0
0.06115388870239258,1943.0
0.06115388870239258,1890.0
0.06115388870239258,1927.0
0.06115388870239258,1983.0
0.06923151016235352,1961.0
0.06923151016235352,1897.0
0.06923151016235352,1903.0
0.06923151016235352,1957.0
0.06923151016235352,1945.0
0.06923151016235352,1895.0
0.06923151016235352,1903.0
0.06923151016235352,1961.0
0.07118654251098633,1959.0
0.07118654251098633,1895.0
0.07118654251098633,1884.0
0.07118654251098633,1939.0
0.07118654251098633,1960.0
0.07118654251098633,1919.0
0.07118654251098633,1925.0
0.07118654251098633,2006.0
0.07118654251098633,2065.0
0.07118654251098633,2027.0
0.07118654251098633,1993.0
0.07118654251098633,2039.0
0.07118654251098633,2072.0
0.07118654251098633,2022.0
0.07118654251098633,1993.0
0.07118654251098633,2020.0
0.07118654251098633,2055.0
0.07118654251098633,1993.0
0.07118654251098633,1927.0
0.07118654251098633,1948.0
0.07118654251098633,1974.0
0.07118654251098633,1931.0
0.07118654251098633,1855.0
0.07118654251098633,1851.0
0.07118654251098633,1910.0
0.07118654251098633,1907.0
0.07118654251098633,1845.0
0.07118654251098633,1839.0
0.07118654251098633,1899.0
0.07118654251098633,1901.0
0.07118654251098633,1840.0
0.07118654251098633,1829.0
0.07118654251098633,1887.0
0.07118654251098633,1913.0
0.07118654251098633,1863.0
0.07118654251098633,1827.0
0.07118654251098633,1875.0
0.07118654251098633,1903.0
0.07118654251098633,1869.0
0.07727217674255371,1816.0
0.07727217674255371,1805.0
0.07727217674255371,1811.0
0.07727217674255371,1791.0
0.07727217674255371,1817.0
0.07727217674255371,1951.0
0.07727217674255371,2169.0
0.07727217674255371,2475.0
0.07727217674255371,2968.0
0.07727217674255371,3405.0
0.07727217674255371,3335.0
0.07727217674255371,2763.0
0.07727217674255371,2065.0
0.07727217674255371,1591.0
0.07727217674255371,1450.0
0.07727217674255371,1451.0
0.07727217674255371,1447.0
0.07727217674255371,1479.0
0.07727217674255371,1599.0
0.07727217674255371,1711.0
0.07727217674255371,1735.0
0.07727217674255371,1747.0
0.07727217674255371,1810.0
0.07727217674255371,1853.0
0.07727217674255371,1814.0
0.07727217674255371,1767.0
0.07727217674255371,1811.0
0.07727217674255371,1861.0
0.07727217674255371,1827.0
0.07727217674255371,1775.0
0.07727217674255371,1813.0
0.07727217674255371,1869.0
0.07727217674255371,1848.0
0.07727217674255371,1797.0
0.07727217674255371,1804.0
0.07727217674255371,1861.0
0.07727217674255371,1855.0
0.07727217674255371,1798.0
0.07727217674255371,1788.0
0.07727217674255371,1850.0
0.07727217674255371,1865.0
0.07727217674255371,1815.0
0.07727217674255371,1797.0
0.07727217674255371,1848.0
0.07727217674255371,1875.0
0.07727217674255371,1815.0
0.07727217674255371,1779.0
0.07727217674255371,1821.0
0.07727217674255371,1861.0
0.07727217674255371,1821.0
0.07727217674255371,1770.0
0.07727217674255371,1797.0
0.07727217674255371,1845.0
0.08546090126037598,1812.0
0.08546090126037598,1757.0
0.08546090126037598,1782.0
0.08546090126037598,1829.0
0.08546090126037598,1803.0
0.08546090126037598,1735.0
0.08546090126037598,1737.0
0.08546090126037598,1799.0
0.08546090126037598,1805.0
0.08546090126037598,1752.0
0.08546090126037598,1743.0
0.08546090126037598,1797.0
0.08546090126037598,1813.0
0.08546090126037598,1767.0
0.08546090126037598,1763.0
0.08546090126037598,1831.0
0.08838486671447754,1863.0
0.08838486671447754,1813.0
0.08838486671447754,1783.0
0.08838486671447754,1862.0
0.08838486671447754,1935.0
0.08838486671447754,1926.0
0.08838486671447754,1901.0
0.08838486671447754,1949.0
0.08838486671447754,2009.0
0.08838486671447754,1992.0
0.08838486671447754,1955.0
0.08838486671447754,1989.0
0.08838486671447754,2041.0
0.08838486671447754,2023.0
0.08838486671447754,1967.0
0.08838486671447754,1979.0
0.08838486671447754,2037.0
0.08838486671447754,2027.0
0.08838486671447754,1963.0
0.08838486671447754,1962.0
0.08838486671447754,2021.0
0.08838486671447754,2031.0
0.08838486671447754,1973.0
0.08838486671447754,1951.0
0.08838486671447754,1998.0
0.08838486671447754,2035.0
0.08838486671447754,1979.0
0.08838486671447754,1945.0
0.08838486671447754,1993.0
0.08838486671447754,2032.0
0.08838486671447754,1979.0
0.08838486671447754,1930.0
0.08838486671447754,1967.0
0.08838486671447754,2021.0
0.08838486671447754,1989.0
0.09383749961853027,1932.0
0.09383749961853027,1957.0
0.09383749961853027,2014.0
0.09383749961853027,2001.0
0.09459471702575684,1944.0
0.09459471702575684,1956.0
0.09459471702575684,2009.0
0.09459471702575684,2005.0
0.09459471702575684,1937.0
0.09459471702575684,1935.0
0.09459471702575684,1996.0
0.09459471702575684,2013.0
0.09459471702575684,1945.0
0.09459471702575684,1918.0
0.09459471702575684,1971.0
0.09459471702575684,1994.0
0.09459471702575684,1927.0
0.09459471702575684,1899.0
0.09459471702575684,1947.0
0.09459471702575684,1983.0
0.09459471702575684,1945.0
0.09459471702575684,1899.0
0.09459471702575684,1932.0
0.09459471702575684,1977.0
0.09459471702575684,1949.0
0.09459471702575684,1887.0
0.09459471702575684,1907.0
0.09459471702575684,1967.0
0.09459471702575684,1968.0
0.09459471702575684,1943.0
0.09459471702575684,1983.0
0.09459471702575684,2077.0
0.09459471702575684,2093.0
0.09459471702575684,2037.0
0.09459471702575684,2026.0
0.09459471702575684,2077.0
0.10963702201843262,2083.0
0.10963702201843262,2025.0
0.10963702201843262,1995.0
0.10963702201843262,2025.0
0.1254582405090332,2027.0
0.1254582405090332,1973.0
0.1254582405090332,1934.0
0.1254582405090332,1952.0
0.1415388584136963,1963.0
0.1415388584136963,1901.0
0.1415388584136963,1839.0
0.1415388584136963,1863.0
0.15730881690979004,1903.0
0.15730881690979004,1877.0
0.15730881690979004,1823.0
0.17314839363098145,1845.0
0.17314839363098145,1899.0
0.17314839363098145,1882.0
0.17314839363098145,1821.0
0.1888866424560547,1829.0
0.1888866424560547,1892.0
0.19468092918395996,1895.0
0.19468092918395996,1835.0
0.20466160774230957,1834.0
0.20466160774230957,1893.0
0.20466160774230957,1909.0
0.20466160774230957,1838.0
0.22072625160217285,1769.0
0.22072625160217285,1785.0
0.22072625160217285,1851.0
0.22072625160217285,1873.0
0.2367253303527832,1917.0
0.2367253303527832,2101.0
0.2367253303527832,2452.0
0.2367253303527832,2957.0
0.25265073776245117,3321.0
0.25356292724609375,3225.0
0.25356292724609375,2711.0
0.25356292724609375,1994.0
0.26846933364868164,1439.0
0.26846933364868164,1289.0
0.26846933364868164,1399.0
0.26846933364868164,1485.0
0.28432273864746094,1513.0
0.2864868640899658,1611.0
0.2864868640899658,1747.0
0.29498791694641113,1803.0
0.3001232147216797,1774.0
0.3049352169036865,1785.0
0.30841541290283203,1847.0
0.3131420612335205,1851.0
0.3171520233154297,1797.0
0.3209547996520996,1771.0
0.3209547996520996,1827.0
0.3209547996520996,1855.0
0.3332390785217285,1817.0
0.3332390785217285,1783.0
0.3332390785217285,1835.0
0.3332390785217285,1881.0
0.3491654396057129,1837.0
0.3491654396057129,1797.0
0.3491654396057129,1833.0
0.3491654396057129,1884.0
0.36501574516296387,1853.0
0.36501574516296387,1805.0
0.36501574516296387,1823.0
0.36501574516296387,1880.0
0.3807084560394287,1866.0
0.38272857666015625,1806.0
0.38272857666015625,1807.0
0.38272857666015625,1868.0
0.39670825004577637,1871.0
0.39670825004577637,1807.0
0.39670825004577637,1797.0
0.39670825004577637,1852.0
0.41288113594055176,1867.0
0.41288113594055176,1813.0
0.41288113594055176,1790.0
0.42456650733947754,1845.0
0.42859649658203125,1875.0
0.42859649658203125,1820.0
0.43637681007385254,1775.0
0.44074153900146484,1818.0
0.4439871311187744,1864.0
0.44884467124938965,1823.0
0.4507324695587158,1771.0
0.4507324695587158,1805.0
0.46002936363220215,1861.0
0.46002936363220215,1833.0
0.46002936363220215,1769.0
0.46002936363220215,1791.0
0.47605466842651367,1868.0
0.47605466842651367,1875.0
0.47605466842651367,1824.0
0.47605466842651367,1839.0
0.49221229553222656,1911.0
0.4958627223968506,1927.0
0.4958627223968506,1876.0
0.4958627223968506,1880.0
0.508018970489502,1959.0
0.5120487213134766,1994.0
0.5120487213134766,1959.0
0.5120487213134766,1952.0
0.5239226818084717,2013.0
0.5239226818084717,2045.0
0.5239226818084717,2004.0
0.5239226818084717,1971.0
0.5410346984863281,2010.0
0.5420706272125244,2057.0
0.5482537746429443,2019.0
0.5482537746429443,1967.0
0.5565922260284424,2004.0
0.5565922260284424,2059.0
0.564708948135376,2027.0
0.564708948135376,1973.0
0.5718109607696533,1991.0
0.5718109607696533,2044.0
0.5806195735931396,2028.0
0.5806195735931396,1964.0
0.5886440277099609,1964.0
0.5886440277099609,2023.0
0.596287727355957,2025.0
0.596287727355957,1967.0
0.596287727355957,1959.0
0.6051592826843262,2020.0
0.6126115322113037,2039.0
0.6126115322113037,1983.0
0.6126115322113037,1957.0
0.6126115322113037,2010.0
0.6285059452056885,2039.0
0.6285059452056885,1989.0
0.6285059452056885,1944.0
0.6285059452056885,1980.0
0.6442885398864746,2019.0
0.6442885398864746,1975.0
0.6442885398864746,1927.0
0.6442885398864746,1963.0
0.6602106094360352,2009.0
0.6619482040405273,1979.0
0.6619482040405273,1919.0
0.6619482040405273,1946.0
0.6763656139373779,2008.0
0.6763656139373779,1995.0
0.6763656139373779,1919.0
0.6763656139373779,1916.0
0.6924633979797363,1977.0
0.6963980197906494,1977.0
0.6963980197906494,1917.0
0.6963980197906494,1913.0
0.7085719108581543,1972.0
0.7085719108581543,1984.0
0.7085719108581543,1919.0
0.7085719108581543,1900.0
0.7247452735900879,1951.0
0.7288539409637451,1976.0
0.7288539409637451,1929.0
0.7288539409637451,1893.0
0.740694522857666,1938.0
0.740694522857666,1977.0
0.740694522857666,1939.0
0.740694522857666,1885.0
0.7568473815917969,1915.0
0.7568473815917969,1967.0
0.7568473815917969,1943.0
0.7568473815917969,1887.0
0.7727007865905762,1901.0
0.7727007865905762,1957.0
0.7727007865905762,1949.0
0.7727007865905762,1897.0
0.7884678840637207,1917.0
0.7884678840637207,2007.0
0.7968668937683105,2039.0
0.8008618354797363,2008.0
0.8044619560241699,2005.0
0.8044619560241699,2068.0
0.8044619560241699,2083.0
0.8044619560241699,2019.0
0.8204345703125,1992.0
0.8220100402832031,2037.0
0.8220100402832031,2053.0
0.8220100402832031,1967.0
0.8365752696990967,1917.0
0.8373732566833496,1972.0
0.8448700904846191,2011.0
0.8448700904846191,1938.0
0.8448700904846191,1853.0
0.8551504611968994,1874.0
0.8551504611968994,1914.0
0.8551504611968994,1882.0
0.8689432144165039,1823.0
0.8689432144165039,1851.0
0.8689432144165039,1913.0
0.8689432144165039,1891.0
0.8850796222686768,1819.0
0.8850796222686768,1821.0
0.8922111988067627,1885.0
0.8967504501342773,1891.0
0.9008116722106934,1832.0
0.9008116722106934,1826.0
0.9008116722106934,1880.0
0.9008116722106934,1897.0
0.9165816307067871,1845.0
0.9165816307067871,1807.0
0.9249911308288574,1822.0
0.9249911308288574,1807.0
0.9324240684509277,1769.0
0.9324240684509277,1791.0
0.9408071041107178,1883.0
0.9408071041107178,2007.0
0.9484868049621582,2157.0
0.9484868049621582,2544.0
0.9484868049621582,3139.0
0.9592759609222412,3379.0
0.9644250869750977,2975.0
0.9644250869750977,2259.0
0.972210168838501,1615.0
0.972210168838501,1327.0
0.980381965637207,1277.0
0.980381965637207,1322.0
0.980381965637207,1452.0
0.980381965637207,1630.0
0.9971091747283936,1722.0
0.9971091747283936,1723.0
0.9971091747283936,1750.0
1.0088293552398682,1817.0
1.011385202407837,1827.0
1.011385202407837,1764.0
1.011385202407837,1739.0
1.011385202407837,1801.0
1.0272352695465088,1833.0
1.0272352695465088,1789.0
1.0272352695465088,1755.0
1.0272352695465088,1799.0
1.0430257320404053,1843.0
1.0430257320404053,1816.0
1.0430257320404053,1776.0
1.0430257320404053,1816.0
1.0607292652130127,1864.0
1.0607292652130127,1829.0
1.0607292652130127,1769.0
1.071943998336792,1799.0
1.0768346786499023,1851.0
1.0768346786499023,1839.0
1.0768346786499023,1775.0
1.0768346786499023,1783.0
1.0907692909240723,1861.0
1.0907692909240723,1870.0
1.0973894596099854,1805.0
1.0973894596099854,1784.0
1.1086769104003906,1831.0
1.1086769104003906,1847.0
1.1086769104003906,1788.0
1.1086769104003906,1772.0
1.1225481033325195,1831.0
1.1285297870635986,1861.0
1.1285297870635986,1804.0
1.1285297870635986,1768.0
1.1384470462799072,1812.0
1.1384470462799072,1853.0
1.1384470462799072,1821.0
1.1384470462799072,1767.0
1.1544840335845947,1788.0
1.1544840335845947,1848.0
1.1544840335845947,1827.0
1.1544840335845947,1772.0
1.1701750755310059,1803.0
1.1701750755310059,1873.0
1.1701750755310059,1875.0
1.1701750755310059,1813.0
1.186333179473877,1827.0
1.186333179473877,1893.0
1.186333179473877,1907.0
1.1977019309997559,1869.0
1.2021191120147705,1869.0
1.2021191120147705,1935.0
1.2021191120147705,1961.0
1.2021191120147705,1913.0
1.217890977859497,1907.0
1.217890977859497,1979.0
1.217890977859497,2029.0
1.217890977859497,1991.0
1.234137773513794,1955.0
1.2380740642547607,1995.0
1.2380740642547607,2041.0
1.2380740642547607,2005.0
1.2503633499145508,1950.0
1.2503633499145508,1979.0
1.2503633499145508,2035.0
1.2503633499145508,2011.0
1.2665388584136963,1951.0
1.2665388584136963,1962.0
1.2665388584136963,2014.0
1.2665388584136963,2012.0
1.2823750972747803,1957.0
1.2890634536743164,1957.0
1.2890634536743164,2009.0
1.2976963520050049,2004.0
1.2976963520050049,1944.0
1.2976963520050049,1941.0
1.2976963520050049,2000.0
1.3135511875152588,2022.0
1.3143444061279297,1961.0
1.3143444061279297,1935.0
1.3143444061279297,1982.0
1.3295464515686035,2015.0
1.3295464515686035,1965.0
1.3295464515686035,1929.0
1.3295464515686035,1972.0
1.3295464515686035,2008.0
1.3478903770446777,1971.0
1.3478903770446777,1915.0
1.3539009094238281,1954.0
1.3539009094238281,2009.0
1.3624789714813232,1975.0
1.3691482543945312,1917.0
1.371746301651001,1931.0
1.371746301651001,1992.0
1.371746301651001,1982.0
1.371746301651001,1927.0
1.3868443965911865,1929.0
1.3868443965911865,1979.0
1.3868443965911865,1978.0
1.3981735706329346,1917.0
1.4030787944793701,1907.0
1.4030787944793701,1963.0
1.4030787944793701,1979.0
1.4030787944793701,1925.0
1.4191834926605225,1891.0
1.4191834926605225,1941.0
1.4191834926605225,1975.0
1.4191834926605225,1930.0
1.4348299503326416,1891.0
1.4348299503326416,1933.0
1.4348299503326416,1963.0
1.4348299503326416,1943.0
1.4507641792297363,1887.0
1.454174518585205,1909.0
1.454174518585205,1955.0
1.454174518585205,1929.0
1.4665703773498535,1875.0
1.4665703773498535,1898.0
1.4665703773498535,1963.0
1.4665703773498535,1951.0
1.4826080799102783,1887.0
1.4826080799102783,1884.0
1.4826080799102783,1941.0
1.4826080799102783,1947.0
1.4983344078063965,1883.0
1.4983344078063965,1870.0
1.5053164958953857,1925.0
1.5053164958953857,1941.0
1.5142271518707275,1887.0
1.5213236808776855,1865.0
1.5213236808776855,1912.0
1.5213236808776855,1955.0
1.5303447246551514,1899.0
1.5303447246551514,1856.0
1.5303447246551514,1895.0
1.5303447246551514,1945.0
1.5463261604309082,1911.0
1.5463261604309082,1867.0
1.5463261604309082,1900.0
1.5463261604309082,1951.0
1.562326431274414,1928.0
1.562326431274414,1869.0
1.562326431274414,1883.0
1.562326431274414,1947.0
1.5781705379486084,1944.0
1.5781705379486084,1895.0
1.5887064933776855,1910.0
1.5887064933776855,1992.0
1.593949794769287,2023.0
1.5988128185272217,1993.0
1.5988128185272217,1993.0
1.6100029945373535,2057.0
1.6100029945373535,2079.0
1.6100029945373535,2023.0
1.6212725639343262,1991.0
1.6212725639343262,2040.0
1.6260523796081543,2069.0
1.6260523796081543,1997.0
1.6260523796081543,1933.0
1.6260523796081543,1965.0
1.642146348953247,1995.0
1.642146348953247,1927.0
1.642146348953247,1845.0
1.642146348953247,1866.0
1.6581196784973145,1916.0
1.6581196784973145,1891.0
1.6581196784973145,1819.0
1.6581196784973145,1837.0
1.674004316329956,1895.0
1.674004316329956,1880.0
1.674004316329956,1820.0
1.674004316329956,1831.0
1.690345287322998,1894.0
1.690345287322998,1896.0
1.7012019157409668,1829.0
1.7012019157409668,1820.0
1.7082111835479736,1885.0
1.7082111835479736,1907.0
1.7082111835479736,1848.0
1.7213399410247803,1816.0
1.722397804260254,1835.0
1.722397804260254,1821.0
1.722397804260254,1785.0
1.7370424270629883,1811.0
1.7370424270629883,1885.0
1.7370424270629883,2001.0
1.7370424270629883,2159.0
1.753169298171997,2557.0
1.753169298171997,3162.0
1.753169298171997,3422.0
1.753169298171997,3026.0
1.7691898345947266,2281.0
1.7691898345947266,1611.0
1.7691898345947266,1322.0
1.7691898345947266,1293.0
1.785214900970459,1355.0
1.785214900970459,1502.0
1.7929563522338867,1693.0
1.7959766387939453,1784.0
1.8010599613189697,1775.0
1.804309606552124,1779.0
1.8060355186462402,1831.0
1.8131234645843506,1846.0
1.817138433456421,1787.0
1.817138433456421,1773.0
1.817138433456421,1836.0
1.817138433456421,1877.0
1.8328907489776611,1829.0
1.8328907489776611,1789.0
1.8328907489776611,1830.0
1.8328907489776611,1869.0
1.8487932682037354,1835.0
1.8543531894683838,1789.0
1.8548741340637207,1819.0
1.8548741340637207,1879.0
1.8648872375488281,1847.0
1.8648872375488281,1791.0
1.8648872375488281,1811.0
1.8648872375488281,1875.0
1.8808355331420898,1873.0
1.8835053443908691,1819.0
1.889129877090454,1817.0
1.889129877090454,1886.0
1.889129877090454,1891.0
1.9017934799194336,1827.0
1.9042840003967285,1812.0
1.9042840003967285,1871.0
1.913677453994751,1893.0
1.913677453994751,1835.0
1.913677453994751,1806.0
1.913677453994751,1851.0
1.9294235706329346,1883.0
1.9294235706329346,1837.0
1.9294235706329346,1804.0
1.9294235706329346,1847.0
1.9294235706329346,1893.0
1.945455551147461,1851.0
1.945455551147461,1803.0
1.945455551147461,1831.0
1.9612412452697754,1879.0
1.9612412452697754,1852.0
1.9612412452697754,1805.0
1.9612412452697754,1831.0
1.9770264625549316,1898.0
1.9770264625549316,1897.0
1.9770264625549316,1847.0
1.9770264625549316,1855.0
1.992948055267334,1932.0
1.992948055267334,1957.0
2.0014657974243164,1909.0
2.0014657974243164,1900.0
2.008899450302124,1965.0
2.008899450302124,2001.0
2.008899450302124,1961.0
2.008899450302124,1944.0
2.0247089862823486,2007.0
2.0247089862823486,2053.0
2.0247089862823486,2007.0
2.0247089862823486,1967.0
2.0403661727905273,2015.0
2.0403661727905273,2070.0
2.0403661727905273,2029.0
2.0403661727905273,1970.0
2.0562901496887207,1991.0
2.0562901496887207,2037.0
2.0562901496887207,2005.0
2.0562901496887207,1944.0
2.0724611282348633,1963.0
2.0724611282348633,2023.0
2.0724611282348633,2021.0
2.0724611282348633,1959.0
2.0885305404663086,1955.0
2.0885305404663086,2011.0
2.0885305404663086,2018.0
2.0885305404663086,1952.0
2.1046009063720703,1943.0
2.1046009063720703,2006.0
2.1046009063720703,2025.0
2.1046009063720703,1971.0
2.1205625534057617,1937.0
2.1205625534057617,1983.0
2.1205625534057617,2023.0
2.1205625534057617,1976.0
2.13653826713562,1941.0
2.13653826713562,1977.0
2.13653826713562,2021.0
2.13653826713562,1977.0
2.1523752212524414,1919.0
2.1523752212524414,1956.0
2.1523752212524414,2020.0
2.1523752212524414,1999.0
2.1682846546173096,1929.0
2.1682846546173096,1935.0
2.1682846546173096,1999.0
2.1682846546173096,1997.0
2.184286117553711,1939.0
2.1889970302581787,1939.0
2.1889970302581787,1994.0
2.1889970302581787,2003.0
2.2001352310180664,1941.0
2.2016522884368896,1919.0
2.2016522884368896,1971.0
2.2016522884368896,1983.0
2.216179132461548,1932.0
2.216179132461548,1903.0
2.216179132461548,1956.0
2.216179132461548,1983.0
2.2324767112731934,1933.0
2.2324767112731934,1893.0
2.2324767112731934,1939.0
2.2324767112731934,1980.0
2.2485692501068115,1945.0
2.2485692501068115,1893.0
2.2485692501068115,1925.0
2.2485692501068115,1975.0
2.2646305561065674,1949.0
2.2646305561065674,1886.0
2.2646305561065674,1899.0
2.2646305561065674,1962.0
2.2808845043182373,1957.0
2.2808845043182373,1894.0
2.2866592407226562,1892.0
2.2866592407226562,1950.0
2.296947479248047,1955.0
2.3015456199645996,1901.0
2.3015456199645996,1883.0
2.3056540489196777,1935.0
2.312807321548462,1963.0
2.312807321548462,1903.0
2.312807321548462,1869.0
2.312807321548462,1913.0
2.328653573989868,1951.0
2.328653573989868,1907.0
2.328653573989868,1871.0
2.328653573989868,1909.0
2.344806671142578,1949.0
2.344806671142578,1912.0
2.344806671142578,1863.0
2.344806671142578,1901.0
2.3606371879577637,1958.0
2.364543914794922,1931.0
2.364543914794922,1867.0
2.364543914794922,1884.0
2.376437187194824,1949.0
2.3775925636291504,1947.0
2.3775925636291504,1882.0
2.3775925636291504,1879.0
2.392563581466675,1933.0
2.392563581466675,1933.0
2.392563581466675,1875.0
2.4017112255096436,1864.0
2.40824294090271,1919.0
2.410174608230591,1943.0
2.410174608230591,1899.0
2.410174608230591,1892.0
2.422090768814087,1957.0
2.429321527481079,2009.0
2.4331891536712646,1989.0
2.436971426010132,1959.0
2.438535213470459,1999.0
2.438535213470459,2045.0
2.4491729736328125,2015.0
2.4491729736328125,1959.0
2.4491729736328125,1979.0
2.4491729736328125,2031.0
2.4652044773101807,2003.0
2.4652044773101807,1933.0
2.4652044773101807,1943.0
2.4652044773101807,1976.0
2.481293201446533,1929.0
2.4819138050079346,1849.0
2.4819138050079346,1843.0
2.4819138050079346,1895.0
2.4971652030944824,1893.0
2.4991917610168457,1836.0
2.501800298690796,1821.0
2.501800298690796,1877.0
2.513075828552246,1891.0
2.51395583152771,1831.0
2.5210535526275635,1811.0
2.5248069763183594,1871.0
2.5289270877838135,1905.0
2.5289270877838135,1863.0
2.5348126888275146,1820.0
2.5348126888275146,1865.0
2.544931650161743,1912.0
2.544931650161743,1883.0
2.544931650161743,1817.0
2.556288957595825,1791.0
2.560685157775879,1814.0
2.560685157775879,1833.0
2.560685157775879,1835.0
2.560685157775879,1896.0
2.5759589672088623,2070.0
2.5759589672088623,2329.0
2.5759589672088623,2805.0
2.5759589672088623,3291.0
2.591763973236084,3339.0
2.591763973236084,2815.0
2.591763973236084,2056.0
2.602180004119873,1477.0
2.6077611446380615,1307.0
2.6077611446380615,1364.0
2.6077611446380615,1415.0
2.6077611446380615,1497.0
2.6237616539001465,1643.0
2.6279900074005127,1759.0
2.630006790161133,1771.0
2.630006790161133,1761.0
2.6397697925567627,1811.0
2.6397697925567627,1855.0
2.6397697925567627,1819.0
2.6397697925567627,1763.0
2.6551601886749268,1800.0
2.6551601886749268,1861.0
2.6551601886749268,1845.0
2.6551601886749268,1788.0
2.672966480255127,1807.0
2.672966480255127,1867.0
2.672966480255127,1863.0
2.672966480255127,1801.0
2.6881022453308105,1802.0
2.6932365894317627,1863.0
2.6932365894317627,1875.0
2.6932365894317627,1816.0
2.702592134475708,1798.0
2.7058448791503906,1849.0
2.7058448791503906,1880.0
2.7058448791503906,1829.0
2.7184066772460938,1803.0
2.7184066772460938,1843.0
2.7356722354888916,1871.0
2.7356722354888916,1833.0
2.7356722354888916,1787.0
2.740529775619507,1829.0
2.7456226348876953,1879.0
2.7491812705993652,1843.0
2.75156569480896,1781.0
2.7551116943359375,1809.0
2.7551116943359375,1863.0
2.7551116943359375,1836.0
2.767714738845825,1781.0
2.767714738845825,1800.0
2.767714738845825,1853.0
2.767714738845825,1843.0
2.7838540077209473,1775.0
2.7886953353881836,1771.0
2.7886953353881836,1838.0
2.7886953353881836,1853.0
2.799917221069336,1801.0
2.805238723754883,1785.0
2.805238723754883,1848.0
2.805238723754883,1881.0
2.8158583641052246,1833.0
2.8177847862243652,1807.0
2.8177847862243652,1871.0
2.827852725982666,1925.0
2.831671714782715,1882.0
2.831671714782715,1853.0
2.831671714782715,1907.0
2.831671714782715,1966.0
2.847665548324585,1951.0
2.847665548324585,1913.0
2.847665548324585,1956.0
2.847665548324585,2021.0
2.8638949394226074,2009.0
2.8638949394226074,1957.0
2.8638949394226074,1975.0
2.8638949394226074,2035.0
2.8801190853118896,2026.0
2.8801190853118896,1964.0
2.8801190853118896,1956.0
2.8801190853118896,2008.0
2.896092653274536,2008.0
2.896092653274536,1944.0
2.9034557342529297,1925.0
2.9034557342529297,1989.0
2.9121978282928467,2006.0
2.9121978282928467,1949.0
2.9121978282928467,1913.0
2.9121978282928467,1960.0
2.9284379482269287,2005.0
2.9284379482269287,1961.0
2.9284379482269287,1913.0
2.9284379482269287,1955.0
2.944490671157837,2007.0
2.9465317726135254,1975.0
2.9465317726135254,1914.0
2.9538791179656982,1931.0
2.960954189300537,1981.0
2.9651854038238525,1963.0
2.9690568447113037,1897.0
2.9724810123443604,1912.0
2.9724810123443604,1976.0
2.9809064865112305,1974.0
2.9809064865112305,1911.0
2.9809064865112305,1910.0
2.9809064865112305,1964.0
2.997131824493408,1971.0
2.997131824493408,1919.0
3.0036416053771973,1907.0
3.0036416053771973,1957.0
3.0129592418670654,1973.0
3.0129592418670654,1925.0
3.0129592418670654,1897.0
3.0129592418670654,1945.0
3.029113531112671,1978.0
3.029924154281616,1933.0
3.029924154281616,1885.0
3.029924154281616,1913.0
3.045269012451172,1961.0
3.045269012451172,1933.0
3.045269012451172,1887.0
3.054128408432007,1915.0
3.06123948097229,1969.0
3.06123948097229,1935.0
3.06123948097229,1874.0
3.0717673301696777,1891.0
3.077287435531616,1955.0
3.077287435531616,1945.0
3.077287435531616,1879.0
3.0887439250946045,1871.0
3.093261957168579,1938.0
3.093261957168579,1957.0
3.093261957168579,1900.0
3.10376238822937,1883.0
3.1090331077575684,1928.0
3.1090331077575684,1944.0
3.1090331077575684,1893.0
3.1090331077575684,1870.0
3.1250929832458496,1927.0
3.1250929832458496,1955.0
3.1250929832458496,1897.0
3.1250929832458496,1849.0
3.1410717964172363,1893.0
3.1410717964172363,1958.0
3.1410717964172363,1928.0
3.1410717964172363,1861.0
3.156912326812744,1880.0
3.156912326812744,1939.0
3.1647212505340576,1909.0
3.169365406036377,1849.0
3.172747850418091,1875.0
3.1762921810150146,1944.0
3.177910804748535,1951.0
3.177910804748535,1908.0
3.188688039779663,1931.0
3.188688039779663,2008.0
3.188688039779663,2019.0
3.188688039779663,1955.0
3.204702615737915,1947.0
3.204702615737915,2009.0
3.204702615737915,2054.0
3.204702615737915,1999.0
3.2206227779388428,1967.0
3.2206227779388428,2002.0
3.2206227779388428,2011.0
3.2206227779388428,1964.0
3.236543893814087,1899.0
3.236543893814087,1903.0
3.236543893814087,1938.0
3.236543893814087,1902.0
3.2525718212127686,1843.0
3.2525718212127686,1851.0
3.2525718212127686,1907.0
3.2525718212127686,1880.0
3.2684133052825928,1823.0
3.2684133052825928,1839.0
3.2684133052825928,1899.0
3.2684133052825928,1893.0
3.2843058109283447,1831.0
3.2887113094329834,1830.0
3.2887113094329834,1891.0
3.2887113094329834,1899.0
3.3005788326263428,1839.0
3.3036956787109375,1816.0
3.3036956787109375,1868.0
3.3036956787109375,1891.0
3.3168227672576904,1819.0
3.3168227672576904,1743.0
3.3168227672576904,1781.0
3.3168227672576904,1886.0
3.332829713821411,1925.0
3.3368656635284424,1983.0
3.3368656635284424,2211.0
3.3368656635284424,2678.0
3.348923444747925,3239.0
3.348923444747925,3419.0
3.348923444747925,3104.0
3.348923444747925,2509.0
3.3648738861083984,1853.0
3.3648738861083984,1415.0
3.3648738861083984,1317.0
3.3648738861083984,1421.0
3.3808062076568604,1492.0
3.3808062076568604,1498.0
3.3808062076568604,1575.0
3.3808062076568604,1719.0
3.3968260288238525,1791.0
3.397947311401367,1773.0
3.404210329055786,1773.0
3.404210329055786,1822.0
3.412680149078369,1845.0
3.412680149078369,1801.0
3.412680149078369,1781.0
3.412680149078369,1829.0
3.428945302963257,1854.0
3.428945302963257,1811.0
3.428945302963257,1767.0
3.428945302963257,1806.0
3.4450533390045166,1852.0
3.4450533390045166,1829.0
3.4450533390045166,1775.0
3.455629825592041,1803.0
3.4612112045288086,1851.0
3.4633901119232178,1836.0
3.4633901119232178,1783.0
3.4706485271453857,1799.0
3.4706485271453857,1854.0
3.4789857864379883,1849.0
3.4789857864379883,1780.0
3.487745523452759,1788.0
3.487745523452759,1848.0
3.487745523452759,1853.0
3.487745523452759,1789.0
3.504688262939453,1775.0
3.504688262939453,1847.0
3.504688262939453,1867.0
3.504688262939453,1801.0
3.518975257873535,1759.0
3.518975257873535,1805.0
3.518975257873535,1839.0
3.518975257873535,1788.0
3.534752607345581,1737.0
3.534752607345581,1775.0
3.534752607345581,1829.0
3.534752607345581,1799.0
3.55059814453125,1736.0
3.55059814453125,1753.0
3.55059814453125,1807.0
3.55059814453125,1787.0
3.5665929317474365,1741.0
3.5665929317474365,1765.0
3.5665929317474365,1827.0
3.5665929317474365,1823.0
3.582784414291382,1775.0
3.582784414291382,1799.0
3.582784414291382,1865.0
3.582784414291382,1877.0
3.598923444747925,1831.0
3.605062246322632,1832.0
3.605062246322632,1915.0
3.605062246322632,1973.0
3.6147851943969727,1946.0
3.6147851943969727,1925.0
3.6147851943969727,1975.0
3.6147851943969727,2023.0
3.6307132244110107,1993.0
3.6307132244110107,1964.0
3.6307132244110107,2009.0
3.6307132244110107,2055.0
3.6469602584838867,2021.0
3.6469602584838867,1970.0
3.6469602584838867,1983.0
3.6469602584838867,2040.0
3.6628975868225098,2019.0
3.6628975868225098,1959.0
3.6718790531158447,1971.0
3.6718790531158447,2031.0
3.678856134414673,2023.0
3.6832306385040283,1959.0
3.6832306385040283,1949.0
3.692655563354492,2006.0
3.694868564605713,2021.0
3.6989450454711914,1978.0
3.705087661743164,1961.0
3.705087661743164,2008.0
3.710862874984741,2031.0
3.7172658443450928,1989.0
3.7207891941070557,1955.0
3.7240817546844482,2008.0
3.7292258739471436,2055.0
3.7292258739471436,2003.0
3.7292258739471436,1949.0
3.7292258739471436,1980.0
3.74348783493042,2028.0
3.74348783493042,2003.0
3.7527403831481934,1949.0
3.7527403831481934,1967.0
3.7594406604766846,2015.0
3.7594406604766846,1999.0
3.7594406604766846,1940.0
3.7594406604766846,1947.0
3.7772860527038574,2004.0
3.7772860527038574,1997.0
3.7772860527038574,1940.0
3.7772860527038574,1935.0
3.7910103797912598,1995.0
3.7910103797912598,1995.0
3.7910103797912598,1933.0
3.8051509857177734,1914.0
3.807011842727661,1976.0
3.807011842727661,2003.0
3.807011842727661,1947.0
3.807011842727661,1914.0
3.8230221271514893,1957.0
3.8230221271514893,1992.0
3.8230221271514893,1946.0
3.8230221271514893,1902.0
3.841418743133545,1945.0
3.841418743133545,1989.0
3.841418743133545,1951.0
3.851809024810791,1897.0
3.8548903465270996,1929.0
3.8548903465270996,1981.0
3.8548903465270996,1957.0
3.8548903465270996,1893.0
3.871018409729004,1901.0
3.871018409729004,1959.0
3.871018409729004,1958.0
3.871018409729004,1899.0
3.887026309967041,1901.0
3.8928117752075195,1952.0
3.8948557376861572,1963.0
3.8948557376861572,1907.0
3.9029409885406494,1890.0
3.905461549758911,1943.0
3.905461549758911,1966.0
3.905461549758911,1913.0
3.920846462249756,1891.0
3.920846462249756,1935.0
3.920846462249756,1965.0
3.920846462249756,1909.0
3.934960126876831,1864.0
3.934960126876831,1907.0
3.934960126876831,1960.0
3.934960126876831,1932.0
3.9510679244995117,1875.0
3.9555511474609375,1895.0
3.9555511474609375,1947.0
3.9555511474609375,1933.0
3.9672434329986572,1879.0
3.9672434329986572,1899.0
3.9672434329986572,1967.0
3.9672434329986572,1975.0
3.9832370281219482,1917.0
3.9832370281219482,1929.0
3.9832370281219482,2012.0
3.9832370281219482,2053.0
4.000834226608276,1995.0
4.004166841506958,1972.0
4.00764799118042,2029.0
4.00764799118042,2063.0
4.016159534454346,2006.0
4.016159534454346,1973.0
4.022301197052002,2007.0
4.022301197052002,2023.0
4.0324554443359375,1965.0
4.0324554443359375,1919.0
4.0324554443359375,1948.0
4.0324554443359375,1965.0
4.048298358917236,1908.0
4.048298358917236,1836.0
4.048298358917236,1861.0
4.048298358917236,1913.0
4.064142227172852,1885.0
4.064142227172852,1823.0
4.064142227172852,1835.0
4.064142227172852,1898.0
4.080299139022827,1895.0
4.080299139022827,1829.0
4.080299139022827,1817.0
4.080299139022827,1881.0
4.096319913864136,1899.0
4.096319913864136,1844.0
4.096319913864136,1823.0
4.106046199798584,1877.0
4.112394571304321,1896.0
4.112394571304321,1837.0
4.112394571304321,1773.0
4.112394571304321,1791.0
4.128196477890015,1879.0
4.128196477890015,1899.0
4.128196477890015,1931.0
4.128196477890015,2107.0
4.144932985305786,2467.0
4.144932985305786,2974.0
4.144932985305786,3276.0
4.153771638870239,3135.0
4.160167455673218,2649.0
4.160167455673218,1948.0
4.160167455673218,1405.0
4.160167455673218,1257.0
4.176366806030273,1375.0
4.176366806030273,1480.0
4.176366806030273,1517.0
4.176366806030273,1618.0
4.192188501358032,1762.0
4.192188501358032,1829.0
4.192188501358032,1789.0
4.192188501358032,1772.0
4.208212614059448,1819.0
4.208212614059448,1851.0
4.208212614059448,1811.0
4.208212614059448,1781.0
4.224010229110718,1839.0
4.224010229110718,1882.0
4.224010229110718,1837.0
4.224010229110718,1789.0
4.240043878555298,1829.0
4.240043878555298,1877.0
4.240043878555298,1851.0
4.240043878555298,1811.0
4.25586462020874,1839.0
4.25586462020874,1897.0
4.25586462020874,1873.0
4.25586462020874,1807.0
4.271861791610718,1821.0
4.271861791610718,1884.0
4.271861791610718,1885.0
4.271861791610718,1824.0
4.2877113819122314,1811.0
4.2877113819122314,1867.0
4.2877113819122314,1891.0
4.2877113819122314,1831.0
4.303691148757935,1811.0
4.306476593017578,1863.0
4.306476593017578,1887.0
4.306476593017578,1833.0
4.319658994674683,1789.0
4.319658994674683,1839.0
4.319658994674683,1885.0
4.319658994674683,1847.0
4.335728168487549,1801.0
4.335728168487549,1827.0
4.335728168487549,1871.0
4.335728168487549,1846.0
4.351952314376831,1792.0
4.354715347290039,1816.0
4.354715347290039,1876.0
4.354715347290039,1861.0
4.367975234985352,1809.0
4.3693461418151855,1828.0
4.3693461418151855,1886.0
4.3693461418151855,1885.0
4.384006977081299,1837.0
4.384006977081299,1849.0
4.384006977081299,1920.0
4.384006977081299,1948.0
4.3998494148254395,1903.0
4.4043567180633545,1901.0
4.4083991050720215,1963.0
4.4083991050720215,2010.0
4.415726184844971,1973.0
4.415726184844971,1943.0
4.422102212905884,1997.0
4.422102212905884,2043.0
4.431734323501587,2012.0
4.431734323501587,1971.0
4.431734323501587,2003.0
4.431734323501587,2057.0
4.447983503341675,2023.0
4.447983503341675,1957.0
4.454288005828857,1971.0
4.454288005828857,2024.0
4.463977575302124,2007.0
4.463977575302124,1949.0
4.472060918807983,1951.0
4.472060918807983,2013.0
4.480292558670044,2013.0
4.480292558670044,1946.0
4.488779783248901,1935.0
4.488779783248901,1996.0
4.496444225311279,2011.0
4.496444225311279,1951.0
4.496444225311279,1928.0
4.506464958190918,1984.0
4.5131378173828125,2025.0
4.5131378173828125,1973.0
4.521021366119385,1944.0
4.524300575256348,1989.0
4.529083013534546,2020.0
4.53278112411499,1975.0
4.5346128940582275,1920.0
4.5392515659332275,1956.0
4.5392515659332275,2011.0
4.547301530838013,1984.0
4.547301530838013,1928.0
4.553927421569824,1945.0
4.553927421569824,2005.0
4.563162565231323,1989.0
4.563162565231323,1931.0
4.563162565231323,1943.0
4.563162565231323,2005.0
4.579099893569946,1997.0
4.579099893569946,1931.0
4.579099893569946,1917.0
4.579099893569946,1975.0
4.59513521194458,1983.0
4.59513521194458,1931.0
4.605571746826172,1911.0
4.606692552566528,1960.0
4.6110827922821045,1979.0
4.6110827922821045,1929.0
4.6110827922821045,1895.0
4.621893644332886,1939.0
4.626975059509277,1972.0
4.626975059509277,1926.0
4.626975059509277,1880.0
4.626975059509277,1914.0
4.642975091934204,1968.0
4.642975091934204,1929.0
4.642975091934204,1869.0
4.642975091934204,1895.0
4.658850193023682,1951.0
4.658850193023682,1935.0
4.658850193023682,1875.0
4.658850193023682,1884.0
4.67472767829895,1944.0
4.67472767829895,1939.0
4.67472767829895,1877.0
4.67472767829895,1879.0
4.690636396408081,1939.0
4.690636396408081,1941.0
4.690636396408081,1876.0
4.690636396408081,1855.0
4.706810235977173,1925.0
4.706810235977173,1947.0
4.706810235977173,1892.0
4.706810235977173,1861.0
4.722411632537842,1907.0
4.722411632537842,1959.0
4.722411632537842,1917.0
4.722411632537842,1874.0
4.738609075546265,1907.0
4.738609075546265,1955.0
4.738609075546265,1927.0
4.738609075546265,1869.0
4.754577875137329,1890.0
4.754577875137329,1939.0
4.754577875137329,1919.0
4.754577875137329,1867.0
4.77061128616333,1879.0
4.77061128616333,1939.0
4.77061128616333,1933.0
4.77061128616333,1869.0
4.786856651306152,1859.0
4.786856651306152,1917.0
4.786856651306152,1933.0
4.786856651306152,1879.0
4.802697658538818,1864.0
4.807230472564697,1915.0
4.807230472564697,1945.0
4.807230472564697,1893.0
4.818570852279663,1855.0
4.823160648345947,1899.0
4.823160648345947,1945.0
4.823160648345947,1917.0
4.834758996963501,1893.0
4.834758996963501,1956.0
4.834758996963501,2035.0
4.834758996963501,2029.0
4.851104974746704,1977.0
4.851104974746704,1995.0
4.851104974746704,2063.0
4.851104974746704,2037.0
4.874850749969482,1971.0
4.874850749969482,1973.0
4.87661600112915,2027.0
4.879662990570068,2011.0
4.884716987609863,1937.0
4.888047933578491,1924.0
4.888047933578491,1961.0
4.888047933578491,1948.0
4.898832082748413,1865.0
4.898832082748413,1835.0
4.907575368881226,1884.0
4.907575368881226,1908.0
4.915754318237305,1853.0
4.915754318237305,1821.0
4.915754318237305,1865.0
4.915754318237305,1907.0
4.931062936782837,1869.0
4.931062936782837,1821.0
4.938666343688965,1855.0
4.938666343688965,1909.0
4.947086334228516,1887.0
4.947086334228516,1827.0
4.947086334228516,1849.0
4.947086334228516,1912.0
4.962969541549683,1897.0
4.962969541549683,1815.0
4.962969541549683,1771.0
4.962969541549683,1820.0
4.979777812957764,1880.0
4.979777812957764,1851.0
4.979777812957764,1898.0
4.979777812957764,2110.0
4.994304895401001,2495.0
4.994304895401001,3029.0
5.005155086517334,3333.0
5.0076904296875,3157.0
5.010524034500122,2557.0
5.010524034500122,1799.0
5.010524034500122,1327.0
5.022061586380005,1279.0
5.02647066116333,1413.0
5.02647066116333,1506.0
5.02647066116333,1594.0
5.02647066116333,1723.0
5.0425450801849365,1835.0
5.0425450801849365,1836.0
5.0425450801849365,1789.0
5.054672718048096,1801.0
5.060468673706055,1853.0
5.060468673706055,1845.0
5.060468673706055,1796.0
5.071965217590332,1805.0
5.071965217590332,1869.0
5.0801308155059814,1874.0
5.085759878158569,1807.0
5.088550329208374,1801.0
5.088550329208374,1861.0
5.088550329208374,1879.0
5.088550329208374,1824.0
5.104522943496704,1803.0
5.10820198059082,1854.0
5.10820198059082,1883.0
5.10820198059082,1837.0
5.120682239532471,1811.0
5.121575117111206,1864.0
5.121575117111206,1909.0
5.121575117111206,1865.0
5.1367878913879395,1821.0
5.1367878913879395,1861.0
5.1367878913879395,1908.0
5.1367878913879395,1871.0
5.153102397918701,1813.0
5.154234170913696,1837.0
5.154234170913696,1897.0
5.154234170913696,1883.0
5.169047594070435,1820.0
5.170062065124512,1831.0
5.170062065124512,1891.0
5.170062065124512,1889.0
5.185239791870117,1832.0
5.1889543533325195,1823.0
5.189517498016357,1877.0
5.189517498016357,1895.0
5.189517498016357,1833.0
5.205457448959351,1807.0
5.208596229553223,1878.0
5.208596229553223,1910.0
5.21732759475708,1865.0
5.21732759475708,1823.0
5.222118854522705,1878.0
5.222118854522705,1931.0
5.233235120773315,1901.0
5.233235120773315,1863.0
5.233235120773315,1897.0
5.233235120773315,1961.0
5.233235120773315,1952.0
5.249246835708618,1913.0
5.249246835708618,1942.0
5.249246835708618,2003.0
5.2649407386779785,2003.0
5.2649407386779785,1957.0
5.272433757781982,1973.0
5.272433757781982,2041.0
5.280887603759766,2045.0
5.280887603759766,1992.0
5.280887603759766,1977.0
5.280887603759766,2026.0
5.297029495239258,2035.0
5.297029495239258,1976.0
5.297029495239258,1950.0
5.308686017990112,2001.0
5.31313943862915,2025.0
5.31313943862915,1973.0
5.31313943862915,1931.0
5.31313943862915,1971.0
5.32919979095459,2013.0
5.32919979095459,1972.0
5.32919979095459,1917.0
5.32919979095459,1951.0
5.344871997833252,1999.0
5.344871997833252,1976.0
5.344871997833252,1927.0
5.344871997833252,1947.0
5.360795021057129,2003.0
5.360795021057129,1980.0
5.360795021057129,1913.0
5.360795021057129,1930.0
5.376812219619751,1999.0
5.376812219619751,2004.0
5.376812219619751,1946.0
5.376812219619751,1939.0
5.392990350723267,1993.0
5.392990350723267,1999.0
5.392990350723267,1943.0
5.392990350723267,1919.0
5.408833026885986,1977.0
5.408833026885986,2007.0
5.408833026885986,1959.0
5.408833026885986,1915.0
5.42494535446167,1951.0
5.427427530288696,1992.0
5.431448459625244,1959.0
5.431448459625244,1914.0
5.440738201141357,1949.0
5.440738201141357,2003.0
5.440738201141357,1964.0
5.440738201141357,1898.0
5.456799268722534,1916.0
5.456799268722534,1976.0
5.456799268722534,1962.0
5.456799268722534,1895.0
5.472823143005371,1897.0
5.472823143005371,1952.0
5.472823143005371,1951.0
5.472823143005371,1891.0
5.488619804382324,1876.0
5.488619804382324,1927.0
5.488619804382324,1935.0
5.488619804382324,1883.0
5.505054473876953,1865.0
5.509166240692139,1915.0
5.509166240692139,1945.0
5.509166240692139,1891.0
5.520384788513184,1851.0
5.521399736404419,1899.0
5.521399736404419,1949.0
5.521399736404419,1913.0
5.5366997718811035,1868.0
5.5366997718811035,1897.0
5.5366997718811035,1943.0
5.5366997718811035,1910.0
5.552788972854614,1851.0
5.552788972854614,1877.0
5.552788972854614,1931.0
5.552788972854614,1927.0
5.5686235427856445,1867.0
5.5686235427856445,1875.0
5.5686235427856445,1933.0
5.5686235427856445,1927.0
5.584413766860962,1867.0
5.587558031082153,1856.0
5.5925517082214355,1920.0
5.5925517082214355,1940.0
5.600957632064819,1877.0
5.603710412979126,1850.0
5.609326601028442,1911.0
5.609326601028442,1946.0
5.61707067489624,1897.0
5.61707067489624,1860.0
5.6213698387146,1895.0
5.6213698387146,1935.0
5.633247375488281,1899.0
5.633247375488281,1865.0
5.633247375488281,1896.0
5.633247375488281,1947.0
5.649171590805054,1917.0
5.649171590805054,1851.0
5.649171590805054,1883.0
5.649171590805054,1947.0
5.665122747421265,1927.0
5.665122747421265,1873.0
5.665122747421265,1883.0
5.665122747421265,1940.0
5.681117057800293,1940.0
5.681117057800293,1886.0
5.688802003860474,1893.0
5.688802003860474,1964.0
5.697079420089722,1998.0
5.697079420089722,1973.0
5.705663442611694,1977.0
5.705663442611694,2035.0
5.713253021240234,2067.0
5.713253021240234,2011.0
5.713253021240234,1967.0
5.722140789031982,2013.0
5.7292640209198,2056.0
5.7292640209198,2011.0
5.7292640209198,1944.0
5.7292640209198,1957.0
5.744967222213745,2009.0
5.744967222213745,1973.0
5.744967222213745,1893.0
5.744967222213745,1884.0
5.7610273361206055,1927.0
5.76399827003479,1902.0
5.768154859542847,1843.0
5.772015571594238,1849.0
5.777091026306152,1913.0
5.777091026306152,1912.0
5.7843053340911865,1849.0
5.7843053340911865,1839.0
5.792352676391602,1899.0
5.796395778656006,1911.0
5.8004374504089355,1855.0
5.804471731185913,1837.0
5.809650182723999,1897.0
5.809650182723999,1931.0
5.809650182723999,1877.0
5.809650182723999,1833.0
5.824689865112305,1853.0
5.833746433258057,1844.0
5.833746433258057,1784.0
5.83705472946167,1790.0
5.840545177459717,1869.0
5.844074487686157,1983.0
5.84747314453125,2122.0
5.84747314453125,2445.0
5.856465578079224,3059.0
5.856465578079224,3503.0
5.856465578079224,3263.0
5.856465578079224,2569.0
5.872324705123901,1853.0
5.872324705123901,1467.0
5.872324705123901,1358.0
5.872324705123901,1369.0
5.888425350189209,1481.0
5.8900721073150635,1661.0
5.8900721073150635,1775.0
5.901240110397339,1779.0
5.904313325881958,1783.0
5.904313325881958,1835.0
5.909908294677734,1861.0
5.909908294677734,1801.0
5.9203338623046875,1759.0
5.922357082366943,1815.0
5.922357082366943,1871.0
5.922357082366943,1831.0
5.937516927719116,1779.0
5.937516927719116,1811.0
5.937516927719116,1869.0
5.937516927719116,1845.0
5.952172756195068,1789.0
5.952172756195068,1811.0
5.952172756195068,1877.0
5.952172756195068,1871.0
5.967997312545776,1813.0
5.967997312545776,1807.0
5.967997312545776,1865.0
5.967997312545776,1873.0
5.983965635299683,1823.0
5.983965635299683,1816.0
5.983965635299683,1873.0
5.983965635299683,1882.0
6.000040769577026,1828.0
6.000040769577026,1801.0
6.000040769577026,1847.0
6.010069847106934,1875.0
6.015990734100342,1828.0
6.015990734100342,1787.0
6.015990734100342,1831.0
6.015990734100342,1874.0
6.032150506973267,1831.0
6.032150506973267,1775.0
6.032150506973267,1813.0
6.032150506973267,1875.0
6.048084259033203,1845.0
6.048084259033203,1783.0
6.048084259033203,1811.0
6.048084259033203,1875.0
6.064332723617554,1868.0
6.064332723617554,1812.0
6.064332723617554,1815.0
6.064332723617554,1881.0
6.0805439949035645,1897.0
6.0805439949035645,1849.0
6.0805439949035645,1843.0
6.0805439949035645,1906.0
6.096740484237671,1925.0
6.096740484237671,1881.0
6.096740484237671,1875.0
6.096740484237671,1944.0
6.112858772277832,1980.0
6.116184711456299,1943.0
6.116184711456299,1910.0
6.1221394538879395,1967.0
6.1221394538879395,2028.0
6.133244276046753,1999.0
6.137698650360107,1951.0
6.137698650360107,1979.0
6.137698650360107,2029.0
6.1492509841918945,2005.0
6.150306701660156,1947.0
6.150306701660156,1964.0
6.150306701660156,2023.0
6.165188789367676,1999.0
6.166204452514648,1933.0
6.172691106796265,1935.0
6.172691106796265,1995.0
6.18123459815979,1992.0
6.18123459815979,1926.0
6.18123459815979,1915.0
6.18123459815979,1979.0
6.197214603424072,1995.0
6.197214603424072,1937.0
6.197214603424072,1899.0
6.206137657165527,1957.0
6.213271379470825,1992.0
6.213271379470825,1943.0
6.213271379470825,1899.0
6.213271379470825,1945.0
6.229119539260864,1989.0
6.229119539260864,1946.0
6.229119539260864,1896.0
6.229119539260864,1933.0
6.244857549667358,1989.0
6.244857549667358,1963.0
6.244857549667358,1908.0
6.244857549667358,1925.0
6.260676860809326,1979.0
6.260676860809326,1967.0
6.260676860809326,1909.0
6.260676860809326,1909.0
6.276665687561035,1966.0
6.276665687561035,1965.0
6.276665687561035,1899.0
6.276665687561035,1890.0
6.292719125747681,1950.0
6.292719125747681,1965.0
6.292719125747681,1909.0
6.292719125747681,1875.0
6.308622360229492,1917.0
6.310792446136475,1947.0
6.310792446136475,1895.0
6.310792446136475,1867.0
6.324429512023926,1916.0
6.324429512023926,1957.0
6.324429512023926,1908.0
6.337972402572632,1853.0
6.340770244598389,1883.0
6.340770244598389,1939.0
6.340770244598389,1915.0
6.340770244598389,1864.0
6.356729507446289,1877.0
6.356729507446289,1929.0
6.356729507446289,1911.0
6.356729507446289,1851.0
6.372949838638306,1863.0
6.372949838638306,1913.0
6.372949838638306,1917.0
6.372949838638306,1855.0
6.388001203536987,1847.0
6.388001203536987,1903.0
6.388001203536987,1919.0
6.388001203536987,1864.0
6.403820037841797,1835.0
6.406752347946167,1887.0
6.410992383956909,1917.0
6.410992383956909,1868.0
6.419837474822998,1834.0
6.419837474822998,1883.0
6.419837474822998,1931.0
6.419837474822998,1895.0
6.435646295547485,1839.0
6.435646295547485,1865.0
6.435646295547485,1913.0
6.435646295547485,1891.0
6.4515221118927,1837.0
6.4555463790893555,1855.0
6.459563970565796,1917.0
6.459563970565796,1907.0
6.467503309249878,1847.0
6.467503309249878,1849.0
6.467503309249878,1909.0
6.467503309249878,1911.0
6.483389854431152,1849.0
6.483389854431152,1843.0
6.483389854431152,1898.0
6.483389854431152,1920.0
6.499141693115234,1871.0
6.505289077758789,1848.0
6.505289077758789,1903.0
6.511409282684326,1943.0
6.515055418014526,1904.0
6.515055418014526,1893.0
6.515055418014526,1963.0
6.515055418014526,2031.0
6.530867576599121,2003.0
6.530867576599121,1959.0
6.538498640060425,1991.0
6.538498640060425,2027.0
6.547169923782349,2004.0
6.547169923782349,1945.0
6.547169923782349,1959.0
6.547169923782349,1999.0
6.562852144241333,1976.0
6.562852144241333,1911.0
6.573041915893555,1887.0
6.573041915893555,1917.0
6.578990936279297,1907.0
6.578990936279297,1837.0
6.588808059692383,1821.0
6.588808059692383,1869.0
6.594835042953491,1891.0
6.594835042953491,1835.0
6.594835042953491,1813.0
6.6054933071136475,1867.0
6.611966609954834,1899.0
6.611966609954834,1845.0
6.611966609954834,1797.0
6.622380018234253,1843.0
6.626909494400024,1895.0
6.626909494400024,1864.0
6.626909494400024,1805.0
6.626909494400024,1844.0
6.644777774810791,1901.0
6.644777774810791,1849.0
6.6540117263793945,1735.0
6.6540117263793945,1722.0
6.6608593463897705,1823.0
6.665246486663818,1863.0
6.6696295738220215,1895.0
6.671772718429565,2116.0
6.676342964172363,2631.0
6.681142568588257,3261.0
6.684866666793823,3465.0
6.689404487609863,3143.0
6.689404487609863,2551.0
6.696971416473389,1918.0
6.696971416473389,1451.0
6.696971416473389,1307.0
6.705446720123291,1405.0
6.712147235870361,1510.0
6.712147235870361,1542.0
6.712147235870361,1589.0
6.722095251083374,1705.0
6.728119850158691,1801.0
6.728119850158691,1783.0
6.728119850158691,1746.0
6.728119850158691,1780.0
6.743943929672241,1831.0
6.743943929672241,1801.0
6.743943929672241,1747.0
6.743943929672241,1767.0
6.760103225708008,1831.0
6.760103225708008,1821.0
6.760103225708008,1765.0
6.760103225708008,1767.0
6.775999307632446,1833.0
6.775999307632446,1847.0
6.775999307632446,1798.0
6.775999307632446,1783.0
6.791895627975464,1839.0
6.791895627975464,1853.0
6.791895627975464,1791.0
6.791895627975464,1767.0
6.807915210723877,1828.0
6.812336444854736,1861.0
6.812336444854736,1811.0
6.812336444854736,1769.0
6.823875665664673,1817.0
6.823875665664673,1865.0
6.823875665664673,1823.0
6.823875665664673,1767.0
6.8398144245147705,1801.0
6.8398144245147705,1851.0
6.8398144245147705,1819.0
6.8398144245147705,1754.0
6.8555662631988525,1773.0
6.8555662631988525,1837.0
6.8555662631988525,1830.0
6.8555662631988525,1767.0
6.871400356292725,1766.0
6.871400356292725,1829.0
6.871400356292725,1835.0
6.871400356292725,1766.0
6.887306451797485,1749.0
6.887306451797485,1811.0
6.887306451797485,1833.0
6.887306451797485,1787.0
6.9031500816345215,1767.0
6.9031500816345215,1829.0
6.9126410484313965,1877.0
6.915581941604614,1839.0
6.9197728633880615,1807.0
6.921814680099487,1867.0
6.921814680099487,1914.0
6.921814680099487,1883.0
6.935102462768555,1855.0
6.935102462768555,1907.0
6.935102462768555,1980.0
6.935102462768555,1971.0
6.953168630599976,1929.0
6.953168630599976,1957.0
6.953168630599976,2019.0
6.953168630599976,2011.0
6.967214107513428,1963.0
6.967214107513428,1968.0
6.967214107513428,2025.0
6.967214107513428,2027.0
6.985093832015991,1975.0
6.985093832015991,1967.0
6.985093832015991,2021.0
6.985093832015991,2030.0
6.999295949935913,1977.0
6.999295949935913,1959.0
6.999295949935913,2011.0
7.012974500656128,2031.0
7.01516318321228,1977.0
7.01516318321228,1947.0
7.022175073623657,1989.0
7.022175073623657,2027.0
7.031405448913574,1995.0
7.031405448913574,1945.0
7.031405448913574,1965.0
7.031405448913574,2018.0
7.047325134277344,1993.0
7.047325134277344,1938.0
7.055591106414795,1957.0
7.055591106414795,2007.0
7.063612461090088,1992.0
7.065588474273682,1931.0
7.072163105010986,1939.0
7.072163105010986,1995.0
7.07955002784729,1999.0
7.07955002784729,1935.0
7.07955002784729,1917.0
7.07955002784729,1979.0
7.0955445766448975,2003.0
7.0955445766448975,1949.0
7.0955445766448975,1916.0
7.105511665344238,1965.0
7.113224506378174,1994.0
7.113224506378174,1944.0
7.12139105796814,1911.0
7.1219024658203125,1958.0
7.127671480178833,1997.0
7.127671480178833,1956.0
7.137815475463867,1901.0
7.138866186141968,1928.0
7.143659830093384,1975.0
7.143659830093384,1960.0
7.143659830093384,1913.0
7.143659830093384,1934.0
7.159448862075806,1995.0
7.159448862075806,1980.0
7.159448862075806,1911.0
7.159448862075806,1909.0
7.177035331726074,1974.0
7.177035331726074,1976.0
7.177035331726074,1917.0
7.187802314758301,1908.0
7.187802314758301,1962.0
7.197258234024048,1972.0
7.201399087905884,1915.0
7.204727649688721,1892.0
7.204727649688721,1944.0
7.213289737701416,1965.0
7.213289737701416,1917.0
7.213289737701416,1883.0
7.213289737701416,1939.0
7.213289737701416,1980.0
7.229292631149292,1944.0
7.229292631149292,1887.0
7.229292631149292,1917.0
7.245047569274902,1974.0
7.252675771713257,1949.0
7.252675771713257,1891.0
7.257066488265991,1913.0
7.2605226039886475,1971.0
7.264171361923218,1965.0
7.2660558223724365,1904.0
7.2660558223724365,1945.0
7.27670693397522,2031.0
7.27670693397522,2037.0
7.27670693397522,1979.0
7.27670693397522,1965.0
7.292543649673462,2031.0
7.292543649673462,2063.0
7.292543649673462,2002.0
7.292543649673462,1963.0
7.308374643325806,1999.0
7.308374643325806,2023.0
7.313741445541382,1974.0
7.313741445541382,1939.0
7.324323415756226,1952.0
7.324323415756226,1957.0
7.324323415756226,1902.0
7.324323415756226,1843.0
7.340329885482788,1870.0
7.340329885482788,1918.0
7.340329885482788,1904.0
7.340329885482788,1853.0
7.356285095214844,1877.0
7.356285095214844,1938.0
7.356285095214844,1917.0
7.356285095214844,1843.0
7.372147560119629,1846.0
7.372147560119629,1915.0
7.372147560119629,1928.0
7.372147560119629,1865.0
7.387972593307495,1845.0
7.389991521835327,1903.0
7.389991521835327,1935.0
7.389991521835327,1863.0
7.404084920883179,1783.0
7.404084920883179,1785.0
7.404084920883179,1843.0
7.414120435714722,1869.0
7.420870065689087,1927.0
7.422889709472656,2143.0
7.422889709472656,2511.0
7.422889709472656,3043.0
7.435987949371338,3496.0
7.435987949371338,3453.0
7.435987949371338,2941.0
7.435987949371338,2214.0
7.452152729034424,1623.0
7.452152729034424,1399.0
7.452152729034424,1435.0
7.452152729034424,1483.0
7.468780755996704,1471.0
7.468780755996704,1527.0
7.468780755996704,1663.0
7.468780755996704,1755.0
7.483957767486572,1753.0
7.488762617111206,1769.0
7.488762617111206,1831.0
7.488762617111206,1838.0
7.500131845474243,1781.0
7.500131845474243,1763.0
7.505774736404419,1815.0
7.505774736404419,1845.0
7.516029357910156,1803.0
7.516029357910156,1773.0
7.516029357910156,1827.0
7.516029357910156,1865.0
7.532035827636719,1821.0
7.532035827636719,1771.0
7.532035827636719,1806.0
7.532035827636719,1855.0
7.5479326248168945,1823.0
7.5479326248168945,1767.0
7.5479326248168945,1788.0
7.5479326248168945,1851.0
7.563853740692139,1845.0
7.563853740692139,1779.0
7.563853740692139,1779.0
7.563853740692139,1843.0
7.579798460006714,1848.0
7.579798460006714,1783.0
7.589083194732666,1771.0
7.589083194732666,1821.0
7.595738649368286,1843.0
7.595738649368286,1785.0
7.595738649368286,1749.0
7.605963706970215,1791.0
7.611759901046753,1829.0
7.614426374435425,1783.0
7.614426374435425,1739.0
7.622364044189453,1773.0
7.627705335617065,1811.0
7.627705335617065,1769.0
7.627705335617065,1705.0
7.627705335617065,1735.0
7.643502950668335,1800.0
7.643502950668335,1767.0
7.643502950668335,1691.0
7.643502950668335,1717.0
7.659536123275757,1797.0
7.659536123275757,1801.0
7.659536123275757,1741.0
7.672339916229248,1757.0
7.675371408462524,1837.0
7.677562236785889,1848.0
7.677562236785889,1804.0
7.677562236785889,1817.0
7.691129446029663,1892.0
7.691129446029663,1935.0
7.691129446029663,1895.0
7.691129446029663,1883.0
7.709079027175903,1955.0
7.709079027175903,2005.0
7.714555501937866,1963.0
7.721142292022705,1935.0
7.721142292022705,1993.0
7.7298455238342285,2042.0
7.7339394092559814,2005.0
7.737762689590454,1949.0
7.737762689590454,1989.0
7.737762689590454,2045.0
7.737762689590454,2025.0
7.752965450286865,1963.0
7.752965450286865,1973.0
7.752965450286865,2027.0
7.752965450286865,2015.0
7.769244194030762,1952.0
7.769244194030762,1959.0
7.769244194030762,2025.0
7.769244194030762,2025.0
7.785173654556274,1951.0
7.785173654556274,1938.0
7.785173654556274,2005.0
7.785173654556274,2030.0
7.801403522491455,1978.0
7.801403522491455,1945.0
7.801403522491455,1995.0
7.801403522491455,2027.0
7.817428112030029,1981.0
7.817428112030029,1941.0
7.817428112030029,1983.0
7.817428112030029,2029.0
7.833195686340332,1995.0
7.833195686340332,1939.0
7.833195686340332,1963.0
7.833195686340332,2015.0
7.849216938018799,1995.0
7.849216938018799,1945.0
7.849216938018799,1961.0
7.849216938018799,2009.0
7.865101099014282,1995.0
7.865101099014282,1929.0
7.865101099014282,1919.0
7.865101099014282,1983.0
7.881126165390015,1997.0
7.881126165390015,1939.0
7.881126165390015,1919.0
7.881126165390015,1972.0
7.897053480148315,1979.0
7.897053480148315,1929.0
7.905704975128174,1903.0
7.905704975128174,1957.0
7.913052320480347,1988.0
7.915308475494385,1939.0
7.915308475494385,1892.0
7.922384738922119,1933.0
7.928929328918457,1980.0
7.930619239807129,1946.0
7.930619239807129,1893.0
7.94084906578064,1919.0
7.9450459480285645,1968.0
7.9450459480285645,1951.0
7.9450459480285645,1897.0
7.9450459480285645,1903.0
7.961074352264404,1957.0
7.961074352264404,1949.0
7.961074352264404,1893.0
7.961074352264404,1886.0
7.976940393447876,1945.0
7.9852776527404785,1951.0
7.9852776527404785,1896.0
7.98787260055542,1887.0
7.992875337600708,1945.0
7.996248006820679,1959.0
7.999638319015503,1902.0
7.999638319015503,1881.0
8.008787155151367,1939.0
8.008787155151367,1974.0
8.015482425689697,1919.0
8.015482425689697,1877.0
8.024680137634277,1915.0
8.024680137634277,1963.0
8.024680137634277,1931.0
8.024680137634277,1891.0
8.040596008300781,1935.0
8.040596008300781,2009.0
8.040596008300781,2009.0
8.040596008300781,1965.0
8.056741714477539,1991.0
8.056741714477539,2056.0
8.056741714477539,2046.0
8.056741714477539,1983.0
8.072532653808594,1983.0
8.072532653808594,2041.0
8.072532653808594,2043.0
8.072532653808594,1967.0
8.08848786354065,1939.0
8.08848786354065,1989.0
8.08848786354065,1993.0
8.08848786354065,1902.0
8.104210615158081,1849.0
8.104210615158081,1893.0
8.104210615158081,1929.0
8.115942239761353,1875.0
8.12127423286438,1824.0
8.124473333358765,1862.0
8.124473333358765,1901.0
8.124473333358765,1871.0
8.135931491851807,1819.0
8.135931491851807,1855.0
8.135931491851807,1913.0
8.135931491851807,1885.0
8.151808261871338,1821.0
8.151808261871338,1844.0
8.151808261871338,1902.0
8.151808261871338,1895.0
8.167701244354248,1829.0
8.167701244354248,1816.0
8.167701244354248,1836.0
8.167701244354248,1815.0
8.183772563934326,1790.0
8.183772563934326,1833.0
8.183772563934326,1951.0
8.183772563934326,2111.0
8.199846506118774,2356.0
8.199846506118774,2879.0
8.199846506118774,3407.0
8.199846506118774,3385.0
8.216022729873657,2782.0
8.21872615814209,2045.0
8.21872615814209,1554.0
8.21872615814209,1385.0
8.232991695404053,1373.0
8.233612537384033,1400.0
8.240503072738647,1501.0
8.245286703109741,1645.0
8.249428510665894,1714.0
8.253217458724976,1719.0
8.254215002059937,1769.0
8.254215002059937,1843.0
8.265302419662476,1838.0
8.265302419662476,1779.0
8.265302419662476,1784.0
8.265302419662476,1845.0
8.281192302703857,1843.0
8.281192302703857,1779.0
8.281192302703857,1769.0
8.281192302703857,1837.0
8.297141313552856,1865.0
8.297141313552856,1819.0
8.297141313552856,1791.0
8.297141313552856,1844.0
8.313211441040039,1883.0
8.316118717193604,1834.0
8.316118717193604,1800.0
8.316118717193604,1837.0
8.329314947128296,1882.0
8.329314947128296,1845.0
8.329314947128296,1799.0
8.329314947128296,1823.0
8.345349550247192,1879.0
8.345349550247192,1853.0
8.345349550247192,1799.0
8.345349550247192,1812.0
8.36105990409851,1869.0
8.36105990409851,1863.0
8.36105990409851,1803.0
8.36105990409851,1801.0
8.376826286315918,1861.0
8.376826286315918,1863.0
8.376826286315918,1798.0
8.376826286315918,1784.0
8.392590284347534,1845.0
8.394390106201172,1871.0
8.394390106201172,1818.0
8.394390106201172,1785.0
8.408496379852295,1833.0
8.408496379852295,1868.0
8.416433572769165,1830.0
8.416433572769165,1787.0
8.42471694946289,1833.0
8.42471694946289,1885.0
8.42471694946289,1856.0
8.42471694946289,1817.0
8.440902471542358,1846.0
8.440902471542358,1901.0
8.440902471542358,1895.0
8.440902471542358,1854.0
8.45666766166687,1891.0
8.45666766166687,1963.0
8.45666766166687,1971.0
8.45666766166687,1931.0
8.472169399261475,1945.0
8.472169399261475,2018.0
8.472169399261475,2037.0
8.472169399261475,1983.0
8.488708019256592,1971.0
8.488708019256592,2027.0
8.488708019256592,2057.0
8.488708019256592,2003.0
8.503807067871094,1968.0
8.503807067871094,2017.0
8.503807067871094,2051.0
8.51669454574585,2004.0
8.51976490020752,1961.0
8.51976490020752,1999.0
8.51976490020752,2041.0
8.51976490020752,2006.0
8.535815238952637,1949.0
8.535815238952637,1975.0
8.535815238952637,2032.0
8.535815238952637,2019.0
8.552075624465942,1958.0
8.552075624465942,1974.0
8.552075624465942,2029.0
8.552075624465942,2019.0
8.568142890930176,1956.0
8.568142890930176,1960.0
8.568142890930176,2029.0
8.568142890930176,2040.0
8.58406376838684,1977.0
8.589088439941406,1958.0
8.589088439941406,2009.0
8.589088439941406,2029.0
8.607686281204224,1975.0
8.607686281204224,1948.0
8.608699321746826,1997.0
8.612078428268433,2026.0
8.617088794708252,1979.0
8.621488571166992,1942.0
8.622005701065063,1983.0
8.622005701065063,2028.0
8.631550788879395,1991.0
8.631550788879395,1933.0
8.639021635055542,1959.0
8.639021635055542,2015.0
8.647380113601685,1992.0
8.647380113601685,1928.0
8.647380113601685,1937.0
8.647380113601685,1995.0
8.663220167160034,1991.0
8.663220167160034,1934.0
8.663220167160034,1933.0
8.663220167160034,1989.0
8.67926836013794,1991.0
8.67926836013794,1927.0
8.67926836013794,1907.0
8.67926836013794,1963.0
8.69548749923706,1990.0
8.69548749923706,1937.0
8.69548749923706,1909.0
8.705971240997314,1955.0
8.711678504943848,1992.0
8.717270135879517,1945.0
8.717270135879517,1903.0
8.717270135879517,1941.0
8.72752571105957,1980.0
8.72752571105957,1944.0
8.72752571105957,1893.0
8.72752571105957,1929.0
8.743389129638672,1981.0
8.743389129638672,1959.0
8.743389129638672,1893.0
8.743389129638672,1903.0
8.759264945983887,1961.0
8.759264945983887,1955.0
8.759264945983887,1899.0
8.759264945983887,1902.0
8.777169227600098,1961.0
8.777169227600098,1967.0
8.777169227600098,1914.0
8.78811502456665,1899.0
8.78811502456665,1951.0
8.797285556793213,1975.0
8.801455020904541,1915.0
8.80415415763855,1885.0
8.80415415763855,1944.0
8.813079595565796,1978.0
8.817319631576538,1929.0
8.817319631576538,1882.0
8.817319631576538,1927.0
8.829262018203735,1975.0
8.829262018203735,1947.0
8.829262018203735,1908.0
8.829262018203735,1951.0
8.845025300979614,2031.0
8.845025300979614,2043.0
8.845025300979614,1999.0
8.845025300979614,2008.0
8.861072778701782,2067.0
8.861072778701782,2059.0
8.861072778701782,2001.0
8.861072778701782,2001.0
8.87703013420105,2058.0
8.87703013420105,2052.0
8.87703013420105,1973.0
8.87703013420105,1943.0
8.893036127090454,1993.0
8.893036127090454,1989.0
8.893036127090454,1895.0
8.893036127090454,1847.0
8.909168720245361,1897.0
8.909168720245361,1928.0
8.917629718780518,1877.0
8.917629718780518,1831.0
8.925329685211182,1869.0
8.925329685211182,1918.0
8.925329685211182,1882.0
8.925329685211182,1829.0
8.94138216972351,1851.0
8.94488000869751,1927.0
8.94488000869751,1880.0
8.953317403793335,1833.0
8.957136154174805,1837.0
8.957136154174805,1915.0
8.957136154174805,1911.0
8.957136154174805,1837.0
8.973072528839111,1807.0
8.973072528839111,1829.0
8.973072528839111,1847.0
8.973072528839111,1845.0
8.989035367965698,1864.0
8.989035367965698,1981.0
8.989035367965698,2186.0
8.989035367965698,2556.0
9.005167961120605,3111.0
9.007195949554443,3443.0
9.013109683990479,3174.0
9.017645835876465,2455.0
9.020919799804688,1707.0
9.020919799804688,1363.0
9.020919799804688,1342.0
9.020919799804688,1407.0
9.036903619766235,1493.0
9.037920713424683,1642.0
9.037920713424683,1785.0
9.037920713424683,1819.0
9.052807569503784,1775.0
9.052807569503784,1788.0
9.052807569503784,1849.0
9.052807569503784,1844.0
9.068881034851074,1789.0
9.068881034851074,1799.0
9.068881034851074,1862.0
9.068881034851074,1867.0
9.08496642112732,1805.0
9.0887610912323,1789.0
9.0887610912323,1849.0
9.0887610912323,1878.0
9.101089239120483,1817.0
9.101089239120483,1799.0
9.105469703674316,1860.0
9.105469703674316,1899.0
9.117772817611694,1862.0
9.117772817611694,1805.0
9.117772817611694,1843.0
9.117772817611694,1891.0
9.133117437362671,1861.0
9.133117437362671,1807.0
9.138966798782349,1832.0
9.138966798782349,1897.0
9.14937424659729,1867.0
9.150508880615234,1807.0
9.150508880615234,1827.0
9.150508880615234,1876.0
9.16503381729126,1877.0
9.16503381729126,1823.0
9.16503381729126,1822.0
9.16503381729126,1881.0
9.180837869644165,1887.0
9.180837869644165,1833.0
9.189302682876587,1813.0
9.189302682876587,1863.0
9.196775436401367,1886.0
9.196775436401367,1839.0
9.196775436401367,1823.0
9.205714702606201,1868.0
9.21261191368103,1903.0
9.217801332473755,1862.0
9.217801332473755,1820.0
9.222919702529907,1864.0
9.228541612625122,1911.0
9.228541612625122,1893.0
9.228541612625122,1853.0
9.228541612625122,1891.0
9.24471116065979,1955.0
9.24471116065979,1944.0
9.24471116065979,1897.0
9.24471116065979,1932.0
9.260599851608276,2004.0
9.260599851608276,2007.0
9.260599851608276,1957.0
9.260599851608276,1960.0
9.276794672012329,2027.0
9.276794672012329,2043.0
9.276794672012329,1994.0
9.276794672012329,1977.0
9.292617559432983,2031.0
9.294499397277832,2053.0
9.294499397277832,1989.0
9.30461072921753,1949.0
9.308098793029785,1997.0
9.313100814819336,2031.0
9.316503047943115,1989.0
9.321205377578735,1941.0
9.321931838989258,1975.0
9.329417705535889,2024.0
9.333338737487793,1995.0
9.33804988861084,1957.0
9.33804988861084,1973.0
9.33804988861084,2013.0
9.348174333572388,1988.0
9.348174333572388,1929.0
9.348174333572388,1955.0
9.348174333572388,2015.0
9.364104270935059,2005.0
9.364104270935059,1941.0
9.364104270935059,1933.0
9.364104270935059,1993.0
9.380305528640747,2007.0
9.380305528640747,1947.0
9.389041185379028,1933.0
9.389041185379028,1993.0
9.396505117416382,2014.0
9.396505117416382,1963.0
9.396505117416382,1928.0
9.405697584152222,1968.0
9.412631034851074,2011.0
9.412631034851074,1967.0
9.418625354766846,1920.0
9.422380208969116,1961.0
9.428554058074951,2011.0
9.428554058074951,1981.0
9.428554058074951,1928.0
9.43903136253357,1950.0
9.444514989852905,2008.0
9.444514989852905,1980.0
9.444514989852905,1915.0
9.444514989852905,1928.0
9.460551500320435,1982.0
9.460551500320435,1977.0
9.460551500320435,1914.0
9.460551500320435,1910.0
9.476346731185913,1965.0
9.476346731185913,1973.0
9.476346731185913,1913.0
9.489094257354736,1900.0
9.492290258407593,1951.0
9.492290258407593,1967.0
9.492290258407593,1907.0
9.50574803352356,1870.0
9.508212089538574,1927.0
9.508212089538574,1965.0
9.508212089538574,1919.0
9.519130945205688,1877.0
9.524243354797363,1917.0
9.524243354797363,1967.0
9.524243354797363,1929.0
9.524243354797363,1869.0
9.540241956710815,1893.0
9.540241956710815,1946.0
9.540241956710815,1934.0
9.540241956710815,1881.0
9.556478500366211,1893.0
9.556478500366211,1951.0
9.556478500366211,1943.0
9.556478500366211,1881.0
9.572566270828247,1879.0
9.572566270828247,1928.0
9.572566270828247,1941.0
9.572566270828247,1884.0
9.588292598724365,1870.0
9.588292598724365,1925.0
9.588292598724365,1951.0
9.588292598724365,1897.0
9.604028701782227,1864.0
9.604028701782227,1909.0
9.604028701782227,1951.0
9.604028701782227,1909.0
9.619221448898315,1869.0
9.619221448898315,1907.0
9.619221448898315,1955.0
9.619221448898315,1917.0
9.635332345962524,1869.0
9.635332345962524,1899.0
9.64430046081543,1968.0
9.649366617202759,1971.0
9.653034925460815,1933.0
9.656755447387695,1967.0
9.656755447387695,2044.0
9.656755447387695,2044.0
9.667079210281372,1993.0
9.667079210281372,1993.0
9.667079210281372,2045.0
9.667079210281372,2063.0
9.683354139328003,1993.0
9.683354139328003,1955.0
9.683354139328003,1983.0
9.683354139328003,1995.0
9.699278354644775,1935.0
9.699278354644775,1891.0
9.699278354644775,1911.0
9.699278354644775,1937.0
9.715222120285034,1881.0
9.719460487365723,1831.0
9.719460487365723,1867.0
9.719460487365723,1911.0
9.731143236160278,1875.0
9.731143236160278,1815.0
9.731143236160278,1835.0
9.731143236160278,1899.0
9.747161149978638,1881.0
9.747161149978638,1829.0
9.747161149978638,1839.0
9.747161149978638,1903.0
9.763195037841797,1902.0
9.763195037841797,1847.0
9.763195037841797,1846.0
9.763195037841797,1903.0
9.779248237609863,1897.0
9.779248237609863,1784.0
9.789092302322388,1753.0
9.789092302322388,1852.0
9.79550814628601,1904.0
9.79550814628601,1907.0
9.79550814628601,2045.0
9.805849075317383,2489.0
9.811383724212646,3145.0
9.811383724212646,3454.0
9.819656372070312,3181.0
9.819656372070312,2605.0
9.828722953796387,1933.0
9.83275318145752,1443.0
9.837657451629639,1272.0
9.837657451629639,1367.0
9.837657451629639,1556.0
9.849066495895386,1658.0
9.853466749191284,1688.0
9.854431629180908,1747.0
9.854431629180908,1831.0
9.854431629180908,1834.0
9.869580745697021,1773.0
9.869580745697021,1765.0
9.869580745697021,1815.0
9.869580745697021,1827.0
9.869580745697021,1774.0
9.885505676269531,1767.0
9.885505676269531,1837.0
9.885505676269531,1867.0
9.901628732681274,1816.0
9.901628732681274,1774.0
9.905818462371826,1806.0
9.905818462371826,1851.0
9.905818462371826,1823.0
9.920077323913574,1791.0
9.920077323913574,1837.0
9.920077323913574,1883.0
9.93372654914856,1840.0
9.93372654914856,1787.0
9.93372654914856,1817.0
9.93372654914856,1875.0
9.949493885040283,1852.0
9.949493885040283,1805.0
9.955387115478516,1817.0
9.955387115478516,1877.0
9.965543508529663,1868.0
9.965543508529663,1813.0
9.973137140274048,1815.0
9.978010892868042,1869.0
9.981481790542603,1875.0
9.985006093978882,1810.0
9.988763809204102,1789.0
9.988763809204102,1851.0
9.997316598892212,1875.0
9.997316598892212,1817.0
9.997316598892212,1783.0
10.005775213241577,1833.0
10.01311993598938,1873.0
10.01311993598938,1829.0
10.020535945892334,1784.0
10.020535945892334,1829.0
10.029278039932251,1885.0
10.030306577682495,1863.0
10.030306577682495,1811.0
10.039036273956299,1839.0
10.045463800430298,1901.0
10.045463800430298,1898.0
10.045463800430298,1847.0
10.045463800430298,1873.0
10.06135368347168,1947.0
10.06135368347168,1963.0
10.06135368347168,1911.0
10.06135368347168,1911.0
10.077381610870361,1981.0
10.077381610870361,2008.0
10.077381610870361,1960.0
10.089061737060547,1951.0
10.093439102172852,2009.0
10.095455169677734,2031.0
10.095455169677734,1980.0
10.095455169677734,1951.0
10.109151840209961,1993.0
10.109151840209961,2021.0
10.109151840209961,1973.0
10.120591163635254,1918.0
10.125008821487427,1959.0
10.125008821487427,2019.0
10.125008821487427,1983.0
10.125008821487427,1919.0
10.14094853401184,1941.0
10.14094853401184,1997.0
10.14094853401184,1974.0
10.14094853401184,1909.0
10.157057046890259,1917.0
10.157057046890259,1973.0
10.157057046890259,1973.0
10.157057046890259,1912.0
10.173088312149048,1916.0
10.173088312149048,1979.0
10.173088312149048,1989.0
10.173088312149048,1931.0
10.188930749893188,1909.0
10.188930749893188,1963.0
10.188930749893188,1993.0
10.188930749893188,1945.0
10.204967498779297,1912.0
10.204967498779297,1961.0
10.204967498779297,2004.0
10.204967498779297,1949.0
10.220786809921265,1900.0
10.220786809921265,1947.0
10.220786809921265,2003.0
10.220786809921265,1965.0
10.236885070800781,1913.0
10.236885070800781,1935.0
10.236885070800781,1983.0
10.236885070800781,1965.0
10.252724409103394,1903.0
10.252724409103394,1911.0
10.252724409103394,1975.0
10.252724409103394,1968.0
10.26892900466919,1900.0
10.26892900466919,1899.0
10.26892900466919,1959.0
10.26892900466919,1963.0
10.284852504730225,1901.0
10.28908395767212,1875.0
10.28974437713623,1935.0
10.28974437713623,1963.0
10.300920724868774,1899.0
10.300920724868774,1869.0
10.300920724868774,1907.0
10.300920724868774,1947.0
10.316957473754883,1901.0
10.321745872497559,1851.0
10.323090076446533,1895.0
10.323090076446533,1942.0
10.332947492599487,1909.0
10.332947492599487,1851.0
10.332947492599487,1875.0
10.332947492599487,1929.0
10.348949193954468,1910.0
10.348949193954468,1852.0
10.348949193954468,1868.0
10.348949193954468,1927.0
10.36494517326355,1926.0
10.366708993911743,1864.0
10.373070478439331,1851.0
10.373070478439331,1909.0
10.381145000457764,1919.0
10.38546085357666,1867.0
10.387738943099976,1852.0
10.387738943099976,1909.0
10.397244691848755,1926.0
10.397244691848755,1868.0
10.397244691848755,1847.0
10.397244691848755,1911.0
10.413323163986206,1957.0
10.413323163986206,1914.0
10.421130895614624,1876.0
10.421130895614624,1915.0
10.429319858551025,1993.0
10.429319858551025,1990.0
10.429319858551025,1947.0
10.429319858551025,1974.0
10.429319858551025,2028.0
10.44534420967102,2010.0
10.44534420967102,1951.0
10.44534420967102,1976.0
10.46119213104248,2041.0
10.46119213104248,2025.0
10.46119213104248,1940.0
10.472227334976196,1933.0
10.47730541229248,1990.0
10.47730541229248,1973.0
10.47730541229248,1885.0
10.489328622817993,1855.0
10.493102788925171,1903.0
10.49718427658081,1917.0
10.49718427658081,1851.0
10.49718427658081,1822.0
10.50885558128357,1873.0
10.50885558128357,1910.0
10.50885558128357,1869.0
10.521120309829712,1828.0
10.524871587753296,1865.0
10.524871587753296,1912.0
10.524871587753296,1891.0
10.524871587753296,1839.0
10.54103136062622,1864.0
10.54103136062622,1913.0
10.54103136062622,1899.0
10.54103136062622,1834.0
10.557024955749512,1823.0
10.557024955749512,1837.0
10.557024955749512,1799.0
10.557024955749512,1767.0
10.57295846939087,1816.0
10.57295846939087,1967.0
10.57295846939087,2156.0
10.57295846939087,2456.0
10.589086055755615,3035.0
10.589086055755615,3563.0
10.589086055755615,3463.0
10.589086055755615,2809.0
10.60506534576416,2095.0
10.605582237243652,1629.0
10.605582237243652,1460.0
10.605582237243652,1414.0
10.621065378189087,1417.0
10.621065378189087,1503.0
10.621065378189087,1629.0
10.621065378189087,1685.0
10.636969089508057,1704.0
10.636969089508057,1779.0
10.636969089508057,1847.0
10.636969089508057,1819.0
10.65292239189148,1748.0
10.655454874038696,1755.0
10.655454874038696,1827.0
10.655454874038696,1835.0
10.668954610824585,1769.0
10.668954610824585,1770.0
10.668954610824585,1833.0
10.668954610824585,1851.0
10.684890508651733,1799.0
10.689110040664673,1781.0
10.689110040664673,1843.0
10.689110040664673,1865.0
10.70083475112915,1807.0
10.70083475112915,1768.0
10.70083475112915,1816.0
10.70083475112915,1865.0
10.716723203659058,1835.0
10.721155643463135,1799.0
10.721672058105469,1834.0
10.721672058105469,1877.0
10.73301076889038,1835.0
10.733912706375122,1781.0
10.733912706375122,1807.0
10.733912706375122,1865.0
10.74894905090332,1851.0
10.74894905090332,1797.0
10.74894905090332,1799.0
10.74894905090332,1849.0
10.764716863632202,1845.0
10.764716863632202,1779.0
10.772455215454102,1771.0
10.772455215454102,1829.0
10.780654191970825,1843.0
10.780654191970825,1783.0
10.780654191970825,1755.0
10.780654191970825,1799.0
10.796953439712524,1811.0
10.796953439712524,1756.0
10.80583667755127,1727.0
10.80583667755127,1787.0
10.812904119491577,1833.0
10.812904119491577,1799.0
10.821329832077026,1756.0
10.821329832077026,1805.0
10.829018831253052,1861.0
10.829018831253052,1834.0
10.829018831253052,1791.0
10.838414907455444,1840.0
10.845304727554321,1917.0
10.845304727554321,1911.0
10.845304727554321,1869.0
10.845304727554321,1899.0
10.861202478408813,1968.0
10.861202478408813,1988.0
10.861202478408813,1943.0
10.861202478408813,1958.0
10.877133131027222,2029.0
10.877133131027222,2043.0
10.877133131027222,1984.0
10.877133131027222,1964.0
10.893155097961426,2013.0
10.895039319992065,2043.0
10.895039319992065,1991.0
10.904325485229492,1958.0
10.904325485229492,2011.0
10.913337230682373,2056.0
10.917478322982788,1999.0
10.921122074127197,1947.0
10.921669483184814,1991.0
10.9291250705719,2035.0
10.9291250705719,1994.0
10.9291250705719,1935.0
10.9291250705719,1957.0
10.94514775276184,2015.0
10.94514775276184,2005.0
10.94514775276184,1948.0
10.94514775276184,1952.0
10.961386442184448,2013.0
10.961386442184448,2008.0
10.961386442184448,1942.0
10.961386442184448,1935.0
10.977486848831177,2004.0
10.977486848831177,2020.0
10.977486848831177,1955.0
10.98910641670227,1919.0
10.99319839477539,1973.0
10.994993925094604,1997.0
10.994993925094604,1943.0
11.005105257034302,1908.0
11.009076595306396,1951.0
11.009076595306396,1979.0
11.009076595306396,1947.0
11.009076595306396,1907.0
11.025119543075562,1948.0
11.025119543075562,1997.0
11.025119543075562,1965.0
11.025119543075562,1907.0
11.04090690612793,1928.0
11.043705940246582,1979.0
11.043705940246582,1957.0
11.043705940246582,1903.0
11.056982517242432,1914.0
11.056982517242432,1963.0
11.056982517242432,1960.0
11.056982517242432,1911.0
11.07304334640503,1903.0
11.07304334640503,1959.0
11.07304334640503,1963.0
11.07304334640503,1907.0
11.088932037353516,1883.0
11.088932037353516,1950.0
11.088932037353516,1971.0
11.088932037353516,1910.0
11.104880332946777,1877.0
11.10692310333252,1930.0
11.10692310333252,1971.0
11.10692310333252,1930.0
11.120823860168457,1882.0
11.122441053390503,1915.0
11.126729488372803,1959.0
11.126729488372803,1928.0
11.136698484420776,1877.0
11.136698484420776,1901.0
11.136698484420776,1951.0
11.136698484420776,1947.0
11.152477979660034,1895.0
11.152477979660034,1915.0
11.152477979660034,1981.0
11.152477979660034,2002.0
11.16834306716919,1962.0
11.16834306716919,1965.0
11.16834306716919,2023.0
11.16834306716919,2031.0
11.184242486953735,1971.0
11.184242486953735,1951.0
11.184242486953735,2011.0
11.184242486953735,2038.0
11.200302362442017,1977.0
11.200302362442017,1918.0
11.200302362442017,1957.0
11.200302362442017,1989.0
11.21614694595337,1926.0
11.21614694595337,1844.0
11.222354888916016,1876.0
11.222354888916016,1927.0
11.232048273086548,1893.0
11.232048273086548,1837.0
11.232048273086548,1849.0
11.232048273086548,1901.0
11.247939348220825,1884.0
11.247939348220825,1827.0
11.247939348220825,1839.0
11.247939348220825,1895.0
11.263817071914673,1887.0
11.263817071914673,1832.0
11.263817071914673,1835.0
11.263817071914673,1898.0
11.27968430519104,1903.0
11.27968430519104,1845.0
11.27968430519104,1821.0
11.289552927017212,1853.0
11.295541524887085,1846.0
11.295541524887085,1757.0
11.295541524887085,1741.0
11.295541524887085,1854.0
11.311488151550293,1991.0
11.311488151550293,2111.0
11.311488151550293,2363.0
11.322904586791992,2921.0
11.327322483062744,3509.0
11.327322483062744,3427.0
11.327322483062744,2843.0
11.327322483062744,2197.0
11.343287706375122,1711.0
11.343287706375122,1433.0
11.343287706375122,1333.0
11.343287706375122,1389.0
11.359145402908325,1500.0
11.359145402908325,1564.0
11.359145402908325,1580.0
11.359145402908325,1659.0
11.375051021575928,1781.0
11.375051021575928,1821.0
11.375051021575928,1771.0
11.375051021575928,1749.0
11.39087462425232,1801.0
11.39087462425232,1823.0
11.39087462425232,1775.0
11.39087462425232,1753.0
11.408681154251099,1801.0
11.408681154251099,1838.0
11.408681154251099,1804.0
11.408681154251099,1763.0
11.424393653869629,1799.0
11.424393653869629,1836.0
11.424393653869629,1801.0
11.437801122665405,1752.0
11.437801122665405,1781.0
11.445353269577026,1844.0
11.44935655593872,1829.0
11.453355550765991,1771.0
11.455294847488403,1779.0
11.455294847488403,1835.0
11.455294847488403,1829.0
11.469191312789917,1770.0
11.469191312789917,1757.0
11.469191312789917,1817.0
11.469191312789917,1829.0
11.48536992073059,1771.0
11.48536992073059,1748.0
11.48536992073059,1801.0
11.48536992073059,1815.0
11.501264333724976,1763.0
11.501264333724976,1737.0
11.505540370941162,1783.0
11.505540370941162,1821.0
11.517375946044922,1779.0
11.518590211868286,1725.0
11.522822856903076,1757.0
11.522822856903076,1805.0
11.533358573913574,1771.0
11.533358573913574,1707.0
11.533358573913574,1725.0
11.533358573913574,1787.0
11.5494544506073,1780.0
11.5494544506073,1727.0
11.5494544506073,1733.0
11.5494544506073,1799.0
11.565375566482544,1811.0
11.565375566482544,1767.0
11.565375566482544,1779.0
11.565375566482544,1843.0
11.58121943473816,1862.0
11.58121943473816,1823.0
11.58121943473816,1831.0
11.58121943473816,1915.0
11.597368001937866,1962.0
11.597368001937866,1931.0
11.597368001937866,1908.0
11.605589628219604,1965.0
11.613414525985718,2014.0
11.613414525985718,1977.0
11.613414525985718,1933.0
11.623002767562866,1971.0
11.629218101501465,2027.0
11.629218101501465,1999.0
11.629218101501465,1944.0
11.629218101501465,1965.0
11.645271301269531,2017.0
11.645271301269531,1993.0
11.645271301269531,1931.0
11.645271301269531,1944.0
11.661383867263794,2009.0
11.661383867263794,2013.0
11.661383867263794,1947.0
11.672128200531006,1933.0
11.677326440811157,1983.0
11.677326440811157,1997.0
11.677326440811157,1945.0
11.677326440811157,1927.0
11.693212985992432,1983.0
11.693212985992432,2019.0
11.693212985992432,1971.0
11.705594301223755,1939.0
11.709125518798828,1973.0
11.709895849227905,2011.0
11.709895849227905,1972.0
11.709895849227905,1931.0
11.725014209747314,1961.0
11.725014209747314,1996.0
11.725014209747314,1961.0
11.725014209747314,1907.0
11.740856885910034,1933.0
11.740856885910034,1991.0
11.740856885910034,1973.0
11.740856885910034,1897.0
11.75664734840393,1902.0
11.75664734840393,1963.0
11.75664734840393,1961.0
11.75664734840393,1903.0
11.772507905960083,1897.0
11.772507905960083,1951.0
11.772507905960083,1967.0
11.772507905960083,1911.0
11.788408041000366,1891.0
11.788408041000366,1942.0
11.788408041000366,1965.0
11.788408041000366,1911.0
11.804181098937988,1875.0
11.804181098937988,1919.0
11.804181098937988,1966.0
11.804181098937988,1928.0
11.820046424865723,1877.0
11.823497533798218,1907.0
11.823497533798218,1951.0
11.823497533798218,1917.0
11.836045742034912,1867.0
11.836045742034912,1891.0
11.836045742034912,1944.0
11.836045742034912,1925.0
11.851891994476318,1869.0
11.851891994476318,1877.0
11.851891994476318,1935.0
11.851891994476318,1938.0
11.868139266967773,1881.0
11.868139266967773,1879.0
11.868139266967773,1939.0
11.868139266967773,1945.0
11.884120464324951,1880.0
11.884120464324951,1846.0
11.884120464324951,1906.0
11.884120464324951,1943.0
11.90019178390503,1893.0
11.90019178390503,1859.0
11.90019178390503,1903.0
11.90019178390503,1947.0
11.916038513183594,1897.0
11.916038513183594,1852.0
11.923951625823975,1897.0
11.923951625823975,1951.0
11.93228268623352,1935.0
11.93228268623352,1901.0
11.93228268623352,1959.0
11.93228268623352,2041.0
11.948424816131592,2027.0
11.950553894042969,1963.0
11.956923723220825,1973.0
11.956923723220825,2031.0
11.965423107147217,2029.0
11.969364881515503,1972.0
11.971173763275146,1957.0
11.971173763275146,1993.0
11.981439352035522,1981.0
11.981439352035522,1925.0
11.981439352035522,1899.0
11.981439352035522,1931.0
11.997370958328247,1933.0
11.997370958328247,1875.0
11.997370958328247,1828.0
11.997370958328247,1853.0
12.013249158859253,1890.0
12.017231464385986,1849.0
12.017231464385986,1815.0
12.025304317474365,1853.0
12.029143571853638,1909.0
12.032297611236572,1875.0
12.032297611236572,1813.0
12.032297611236572,1831.0
12.044968843460083,1887.0
12.044968843460083,1875.0
12.044968843460083,1817.0
12.044968843460083,1829.0
12.061025381088257,1895.0
12.061025381088257,1886.0
12.061025381088257,1791.0
12.061025381088257,1739.0
12.076963663101196,1799.0
12.076963663101196,1881.0
12.076963663101196,1875.0
12.076963663101196,1927.0
12.092877388000488,2149.0
12.092877388000488,2578.0
12.092877388000488,3089.0
12.092877388000488,3287.0
12.108810901641846,3059.0
12.108810901641846,2479.0
12.108810901641846,1784.0
12.108810901641846,1339.0
12.12429404258728,1291.0
12.12429404258728,1414.0
12.12429404258728,1467.0
12.135644674301147,1497.0
12.140340566635132,1623.0
12.140340566635132,1764.0
12.14671516418457,1798.0
12.150704145431519,1755.0
12.156142711639404,1769.0
12.156142711639404,1831.0
12.156142711639404,1832.0
12.156142711639404,1771.0
12.172250747680664,1759.0
12.172250747680664,1817.0
12.172250747680664,1833.0
12.172250747680664,1784.0
12.188315153121948,1769.0
12.188315153121948,1827.0
12.188315153121948,1851.0
12.188315153121948,1803.0
12.204379796981812,1773.0
12.204379796981812,1821.0
12.204379796981812,1855.0
12.204379796981812,1823.0
12.220337390899658,1783.0
12.22440481185913,1822.0
12.22440481185913,1875.0
12.22440481185913,1847.0
12.236563444137573,1791.0
12.236563444137573,1815.0
12.236563444137573,1871.0
12.236563444137573,1847.0
12.25290322303772,1789.0
12.25290322303772,1800.0
12.25290322303772,1855.0
12.25290322303772,1852.0
12.268776178359985,1785.0
12.268776178359985,1771.0
12.268776178359985,1833.0
12.268776178359985,1845.0
12.28489899635315,1784.0
12.28489899635315,1763.0
12.28489899635315,1820.0
12.28489899635315,1844.0
12.300786972045898,1785.0
12.300786972045898,1759.0
12.300786972045898,1805.0
12.300786972045898,1839.0
12.31693434715271,1807.0
12.31693434715271,1768.0
12.3248929977417,1811.0
12.3248929977417,1864.0
12.333014726638794,1831.0
12.333014726638794,1783.0
12.347927808761597,1819.0
12.347927808761597,1899.0
12.349085569381714,1906.0
12.352905750274658,1851.0
12.356439352035522,1869.0
12.359909772872925,1935.0
12.364965915679932,1949.0
12.369429588317871,1907.0
12.37255597114563,1908.0
12.376636743545532,1975.0
12.38089632987976,1992.0
12.385140180587769,1944.0
12.389188528060913,1928.0
12.389188528060913,1988.0
12.396991491317749,2012.0
12.396991491317749,1957.0
12.40512752532959,1913.0
12.407931327819824,1956.0
12.412916660308838,1991.0
12.41722822189331,1943.0
12.41722822189331,1896.0
12.422815799713135,1935.0
12.429056406021118,1982.0
12.429056406021118,1957.0
12.429056406021118,1901.0
12.43990969657898,1915.0
12.44502329826355,1974.0
12.44502329826355,1971.0
12.44502329826355,1915.0
12.456373691558838,1925.0
12.461190700531006,1980.0
12.461190700531006,1977.0
12.461190700531006,1919.0
12.472259283065796,1917.0
12.476337909698486,1977.0
12.480456113815308,1983.0
12.480456113815308,1927.0
12.48868465423584,1907.0
12.490710973739624,1956.0
12.497350931167603,1987.0
12.50150465965271,1941.0
12.50475525856018,1897.0
12.50475525856018,1943.0
12.513377666473389,1981.0
12.516029834747314,1941.0
12.52007508277893,1895.0
12.525415182113647,1935.0
12.529325485229492,1983.0
12.533008575439453,1955.0
12.53706669807434,1892.0
12.54836130142212,1909.0
12.54836130142212,1973.0
12.549970388412476,1961.0
12.553195476531982,1902.0
12.556487560272217,1903.0
12.56142258644104,1951.0
12.565103530883789,1945.0
12.565103530883789,1881.0
12.572845935821533,1878.0
12.576911211013794,1935.0
12.581823348999023,1955.0
12.583847522735596,1894.0
12.588816165924072,1874.0
12.590849876403809,1929.0
12.595752954483032,1954.0
12.595752954483032,1900.0
12.595752954483032,1867.0
12.606787204742432,1909.0
12.611440658569336,1951.0
12.617218732833862,1907.0
12.619243860244751,1851.0
12.625675916671753,1893.0
12.627462148666382,1943.0
12.627462148666382,1912.0
12.627462148666382,1855.0
12.627462148666382,1883.0
12.644045114517212,1939.0
12.64809799194336,1919.0
12.64809799194336,1871.0
12.65546178817749,1885.0
12.658896684646606,1943.0
12.658896684646606,1932.0
12.658896684646606,1869.0
12.658896684646606,1863.0
12.676688432693481,1913.0
12.676688432693481,1927.0
12.676688432693481,1875.0
12.676688432693481,1863.0
12.690415620803833,1919.0
12.690415620803833,1929.0
12.690415620803833,1876.0
12.690415620803833,1845.0
12.708116054534912,1895.0
12.712161302566528,1941.0
12.716197967529297,1897.0
12.720235586166382,1850.0
12.724012613296509,1882.0
12.728048324584961,1927.0
12.73207950592041,1893.0
12.736109733581543,1845.0
12.737871646881104,1875.0
12.737871646881104,1931.0
12.737871646881104,1913.0
12.737871646881104,1851.0
12.753667116165161,1855.0
12.753667116165161,1918.0
12.753667116165161,1925.0
12.769551515579224,1875.0
12.769551515579224,1871.0
12.777294397354126,1927.0
12.777294397354126,1933.0
12.785284042358398,1877.0
12.789604902267456,1863.0
12.7930428981781,1917.0
12.796711444854736,1945.0
12.800759077072144,1886.0
12.80548644065857,1846.0
12.80548644065857,1899.0
12.80548644065857,1947.0
12.81751561164856,1911.0
12.81751561164856,1875.0
12.81751561164856,1918.0
12.826427221298218,1992.0
12.83236575126648,1992.0
12.836103439331055,1967.0
12.838130950927734,1999.0
12.838130950927734,2044.0
12.848053932189941,2025.0
12.848053932189941,1965.0
12.848053932189941,1977.0
12.860905647277832,2037.0
12.863945960998535,2034.0
12.867992162704468,1951.0
12.872053861618042,1913.0
12.876035451889038,1960.0
12.881853580474854,1971.0
12.883872270584106,1901.0
12.887913942337036,1849.0
12.893984317779541,1887.0
12.895749807357788,1913.0
12.895749807357788,1867.0
12.895749807357788,1833.0
12.895749807357788,1881.0
12.91142749786377,1913.0
12.91142749786377,1867.0
12.91960334777832,1813.0
12.923653841018677,1845.0
12.92872405052185,1901.0
12.932761192321777,1881.0
12.936787843704224,1830.0
12.940841913223267,1849.0
12.944632768630981,1897.0
12.948665857315063,1880.0
12.952702283859253,1823.0
12.956746578216553,1833.0
12.958512783050537,1867.0
12.964443445205688,1834.0
12.968483448028564,1806.0
12.973660230636597,1855.0
12.973660230636597,1932.0
12.973660230636597,2004.0
12.973660230636597,2135.0
12.989447355270386,2571.0
12.99146842956543,3171.0
12.99146842956543,3365.0
12.99146842956543,2917.0
13.005104780197144,2185.0
13.007272243499756,1581.0
13.01143741607666,1332.0
13.01143741607666,1295.0
13.021094799041748,1365.0
13.024896383285522,1557.0
13.029170751571655,1745.0
13.029170751571655,1800.0
13.037702798843384,1783.0
13.039724826812744,1813.0
13.044738054275513,1861.0
13.047782897949219,1835.0
13.053270101547241,1771.0
13.05529499053955,1784.0
13.061603784561157,1853.0
13.064300060272217,1856.0
13.069376707077026,1802.0
13.072601556777954,1791.0
13.077334642410278,1851.0
13.079363107681274,1868.0
13.085172891616821,1813.0
13.085172891616821,1785.0
13.085172891616821,1839.0
13.096435070037842,1871.0
13.10107421875,1823.0
13.105125904083252,1785.0
13.109173774719238,1833.0
13.113221883773804,1878.0
13.117012977600098,1837.0
13.119044780731201,1797.0
13.124437808990479,1835.0
13.129101991653442,1893.0
13.13266897201538,1865.0
13.13734745979309,1803.0
13.13734745979309,1832.0
13.144890785217285,1885.0
13.14868712425232,1875.0
13.14868712425232,1803.0
13.14868712425232,1807.0
13.14868712425232,1868.0
13.164798259735107,1883.0
13.166858673095703,1831.0
13.172717571258545,1823.0
13.172717571258545,1871.0
13.180634021759033,1883.0
13.180634021759033,1831.0
13.180634021759033,1816.0
13.180634021759033,1869.0
13.196521520614624,1897.0
13.196521520614624,1849.0
13.196521520614624,1819.0
13.206358909606934,1869.0
13.21237301826477,1917.0
13.217466354370117,1895.0
13.217466354370117,1848.0
13.225048303604126,1891.0
13.228078842163086,1948.0
13.228078842163086,1931.0
13.228078842163086,1893.0
13.23883843421936,1927.0
13.245306491851807,1993.0
13.249364852905273,1988.0
13.253476619720459,1935.0
13.257544755935669,1949.0
13.261361360549927,2021.0
13.261361360549927,2030.0
13.266905784606934,1973.0
13.27147889137268,1971.0
13.27711272239685,2023.0
13.279808759689331,2031.0
13.283859491348267,1971.0
13.287901639938354,1946.0
13.290953159332275,2007.0
13.293880701065063,2029.0
13.293880701065063,1972.0
13.293880701065063,1932.0
13.306766033172607,1973.0
13.306766033172607,2007.0
13.306766033172607,1956.0
13.306766033172607,1906.0
13.322665214538574,1939.0
13.327335357666016,1987.0
13.327335357666016,1958.0
13.327335357666016,1901.0
13.338387727737427,1917.0
13.338387727737427,1975.0
13.338387727737427,1967.0
13.338387727737427,1911.0
13.356568574905396,1917.0
13.356568574905396,1979.0
13.356568574905396,1982.0
13.356568574905396,1919.0
13.37234091758728,1919.0
13.377286195755005,1979.0
13.377286195755005,1994.0
13.377286195755005,1940.0
13.38603663444519,1927.0
13.38603663444519,1989.0
13.38603663444519,2019.0
13.401822566986084,1965.0
13.404293537139893,1927.0
13.404293537139893,1967.0
13.404293537139893,2011.0
13.404293537139893,1972.0
13.41996955871582,1927.0
13.41996955871582,1957.0
13.427623987197876,2004.0
13.427623987197876,1967.0
13.437360525131226,1909.0
13.440591096878052,1928.0
13.445498943328857,1981.0
13.448814392089844,1971.0
13.450013637542725,1907.0
13.450013637542725,1910.0
13.450013637542725,1965.0
13.450013637542725,1963.0
13.467782735824585,1900.0
13.472928762435913,1885.0
13.472928762435913,1943.0
13.472928762435913,1957.0
13.483952522277832,1897.0
13.483952522277832,1869.0
13.492433071136475,1919.0
13.492433071136475,1950.0
13.499857902526855,1899.0
13.499857902526855,1853.0
13.509105682373047,1902.0
13.509105682373047,1946.0
13.513774394989014,1899.0
13.513774394989014,1849.0
13.513774394989014,1884.0
13.527819871902466,1938.0
13.531606674194336,1912.0
13.531606674194336,1847.0
13.53882622718811,1869.0
13.545377016067505,1933.0
13.547006130218506,1929.0
13.547006130218506,1877.0
13.554086208343506,1875.0
13.554086208343506,1920.0
13.564368724822998,1909.0
13.564368724822998,1840.0
13.571024656295776,1830.0
13.571024656295776,1885.0
13.571024656295776,1899.0
13.584973096847534,1843.0
13.588757753372192,1823.0
13.59071159362793,1879.0
13.59071159362793,1909.0
13.59071159362793,1849.0
13.602449655532837,1807.0
13.608672618865967,1853.0
13.612724304199219,1901.0
13.616769313812256,1865.0
13.620843172073364,1823.0
13.625874280929565,1871.0
13.629417419433594,1928.0
13.632704496383667,1897.0
13.63442873954773,1843.0
13.63442873954773,1864.0
13.63442873954773,1929.0
13.63442873954773,1907.0
13.65045714378357,1844.0
13.656519174575806,1851.0
13.658551454544067,1914.0
13.658551454544067,1917.0
13.66627550125122,1853.0
13.671733140945435,1839.0
13.675994396209717,1891.0
13.675994396209717,1893.0
13.684536695480347,1843.0
13.68918776512146,1833.0
13.68918776512146,1895.0
13.68918776512146,1919.0
13.69860029220581,1861.0
13.69860029220581,1813.0
13.69860029220581,1852.0
13.69860029220581,1899.0
13.714417219161987,1875.0
13.714417219161987,1835.0
13.714417219161987,1870.0
13.728535413742065,1918.0
13.730380058288574,1894.0
13.730380058288574,1847.0
13.739025831222534,1895.0
13.746156692504883,1991.0
13.746156692504883,2011.0
13.746156692504883,1957.0
13.755826950073242,1951.0
13.755826950073242,1997.0
13.762177228927612,1980.0
13.762177228927612,1917.0
13.762177228927612,1916.0
13.762177228927612,1971.0
13.778060913085938,1971.0
13.778060913085938,1897.0
13.778060913085938,1869.0
13.778060913085938,1911.0
13.794086694717407,1913.0
13.794086694717407,1839.0
13.794086694717407,1800.0
13.794086694717407,1845.0
13.811068534851074,1891.0
13.811068534851074,1848.0
13.811068534851074,1799.0
13.82550859451294,1834.0
13.82901668548584,1891.0
13.82901668548584,1861.0
13.82901668548584,1804.0
13.841279745101929,1829.0
13.841279745101929,1890.0
13.841279745101929,1875.0
13.841279745101929,1817.0
13.857330560684204,1823.0
13.857330560684204,1883.0
13.857330560684204,1885.0
13.857330560684204,1817.0
13.873183727264404,1768.0
13.873183727264404,1791.0
13.873183727264404,1845.0
13.873183727264404,1837.0
13.889133214950562,1835.0
13.889133214950562,1989.0
13.889133214950562,2279.0
13.889133214950562,2765.0
13.905119180679321,3223.0
13.905944585800171,3305.0
13.905944585800171,2885.0
13.905944585800171,2125.0
13.920890808105469,1484.0
13.920890808105469,1285.0
13.929296731948853,1359.0
13.929296731948853,1443.0
13.936848163604736,1525.0
13.936848163604736,1669.0
13.936848163604736,1803.0
13.936848163604736,1823.0
13.95293402671814,1771.0
13.961506128311157,1775.0
13.961506128311157,1833.0
13.965665340423584,1838.0
13.969104290008545,1779.0
13.972582340240479,1772.0
13.975847244262695,1838.0
13.975847244262695,1866.0
13.985084772109985,1803.0
13.985084772109985,1779.0
13.985084772109985,1837.0
13.985084772109985,1875.0
14.001072406768799,1817.0
14.001072406768799,1784.0
14.001072406768799,1829.0
14.001072406768799,1865.0
14.017142295837402,1822.0
14.017142295837402,1783.0
14.017142295837402,1827.0
14.029592990875244,1886.0
14.03304409980774,1855.0
14.03304409980774,1796.0
14.03304409980774,1812.0
14.03304409980774,1873.0
14.048906326293945,1864.0
14.0513436794281,1807.0
14.0513436794281,1816.0
14.0513436794281,1876.0
14.06479024887085,1877.0
14.066874742507935,1818.0
14.072978496551514,1806.0
14.072978496551514,1861.0
14.081121921539307,1877.0
14.085041999816895,1817.0
14.08894419670105,1789.0
14.092103958129883,1839.0
14.092103958129883,1869.0
14.092103958129883,1819.0
14.104599714279175,1790.0
14.10772180557251,1845.0
14.10772180557251,1883.0
14.10772180557251,1843.0
14.120467901229858,1810.0
14.120467901229858,1850.0
14.129919052124023,1903.0
14.129919052124023,1885.0
14.136519432067871,1839.0
14.1379075050354,1874.0
14.1379075050354,1939.0
14.1379075050354,1937.0
14.15257716178894,1884.0
14.155913829803467,1909.0
14.159976959228516,1989.0
14.159976959228516,1999.0
14.168443202972412,1947.0
14.172091960906982,1943.0
14.174109935760498,1999.0
14.174109935760498,2023.0
14.184388399124146,1963.0
14.184388399124146,1943.0
14.184388399124146,2003.0
14.184388399124146,2036.0
14.20067310333252,1971.0
14.204711198806763,1919.0
14.204711198806763,1963.0
14.204711198806763,2008.0
14.21657919883728,1962.0
14.21657919883728,1901.0
14.21657919883728,1931.0
14.23013186454773,1979.0
14.232558965682983,1951.0
14.232558965682983,1895.0
14.232558965682983,1912.0
14.232558965682983,1973.0
14.248445749282837,1959.0
14.248445749282837,1895.0
14.248445749282837,1897.0
14.248445749282837,1955.0
14.264411926269531,1957.0
14.264411926269531,1901.0
14.272109270095825,1895.0
14.274130582809448,1955.0
14.280362129211426,1973.0
14.280362129211426,1911.0
14.288989782333374,1885.0
14.291006088256836,1940.0
14.296293497085571,1975.0
14.296293497085571,1931.0
14.296293497085571,1893.0
14.307681322097778,1941.0
14.3122878074646,1981.0
14.3122878074646,1937.0
14.3122878074646,1883.0
14.3122878074646,1919.0
14.32845163345337,1980.0
14.330565929412842,1960.0
14.330565929412842,1903.0
14.330565929412842,1925.0
14.34423303604126,1975.0
14.34423303604126,1958.0
14.34423303604126,1897.0
14.34423303604126,1903.0
14.361039876937866,1963.0
14.361039876937866,1968.0
14.361039876937866,1908.0
14.361039876937866,1895.0
14.376177549362183,1948.0
14.376177549362183,1967.0
14.376177549362183,1910.0
14.376177549362183,1875.0
14.392264366149902,1919.0
14.392264366149902,1963.0
14.392264366149902,1924.0
14.392264366149902,1886.0
14.408405065536499,1925.0
14.408405065536499,1963.0
14.408405065536499,1927.0
14.408405065536499,1881.0
14.424175024032593,1913.0
14.426203727722168,1968.0
14.43082571029663,1943.0
14.43082571029663,1880.0
14.440350532531738,1895.0
14.440350532531738,1955.0
14.440350532531738,1951.0
14.440350532531738,1891.0
14.456003189086914,1891.0
14.456003189086914,1947.0
14.456003189086914,1956.0
14.456003189086914,1893.0
14.472143411636353,1881.0
14.472143411636353,1915.0
14.472143411636353,1940.0
14.472143411636353,1889.0
14.48798680305481,1869.0
14.490012884140015,1931.0
14.490012884140015,1955.0
14.490012884140015,1900.0
14.503962278366089,1864.0
14.503962278366089,1902.0
14.503962278366089,1961.0
14.503962278366089,1913.0
14.51982069015503,1863.0
14.51982069015503,1892.0
14.51982069015503,1945.0
14.530964851379395,1927.0
14.535981178283691,1873.0
14.53799819946289,1893.0
14.53799819946289,1951.0
14.53799819946289,1931.0
14.551845788955688,1863.0
14.551845788955688,1876.0
14.551845788955688,1943.0
14.551845788955688,1945.0
14.567855596542358,1883.0
14.567855596542358,1870.0
14.567855596542358,1939.0
14.567855596542358,1964.0
14.58383297920227,1915.0
14.58383297920227,1911.0
14.58383297920227,1992.0
14.58383297920227,2043.0
14.600830793380737,2007.0
14.604105710983276,1963.0
14.60834789276123,2011.0
14.61339521408081,2066.0
14.61739206314087,2029.0
14.62056279182434,1978.0
14.622326850891113,1999.0
14.622326850891113,2031.0
14.633049011230469,1984.0
14.633049011230469,1931.0
14.633049011230469,1940.0
14.633049011230469,1959.0
14.648977518081665,1928.0
14.648977518081665,1867.0
14.648977518081665,1868.0
14.648977518081665,1915.0
14.664957523345947,1925.0
14.664957523345947,1867.0
14.67332124710083,1853.0
14.67332124710083,1911.0
14.681076049804688,1929.0
14.681076049804688,1868.0
14.688837051391602,1847.0
14.688837051391602,1908.0
14.696987628936768,1947.0
14.697962760925293,1897.0
14.697962760925293,1851.0
14.697962760925293,1892.0
14.71289348602295,1943.0
14.71289348602295,1907.0
14.71289348602295,1823.0
14.71289348602295,1805.0
14.72900915145874,1873.0
14.731557846069336,1897.0
14.731557846069336,1903.0
14.731557846069336,2053.0
14.744758367538452,2373.0
14.744758367538452,2899.0
14.744758367538452,3403.0
14.744758367538452,3455.0
14.760722875595093,3045.0
14.760722875595093,2361.0
14.769440650939941,1709.0
14.771454334259033,1399.0
14.776830911636353,1423.0
14.776830911636353,1507.0
14.784485578536987,1519.0
14.78830623626709,1581.0
14.793002843856812,1724.0
14.793002843856812,1830.0
14.793002843856812,1823.0
14.804781436920166,1811.0
14.809028625488281,1861.0
14.809028625488281,1900.0
14.809028625488281,1866.0
14.809028625488281,1811.0
14.824962377548218,1839.0
14.824962377548218,1897.0
14.831779956817627,1885.0
14.831779956817627,1832.0
14.840812921524048,1849.0
14.840812921524048,1909.0
14.840812921524048,1899.0
14.840812921524048,1832.0
14.856719970703125,1835.0
14.856719970703125,1900.0
14.856719970703125,1903.0
14.856719970703125,1847.0
14.872485876083374,1835.0
14.880504369735718,1896.0
14.880504369735718,1913.0
14.884053230285645,1863.0
14.888874053955078,1837.0
14.892109870910645,1886.0
14.893790483474731,1915.0
14.893790483474731,1869.0
14.904990911483765,1832.0
14.907602310180664,1873.0
14.912906408309937,1908.0
14.914019346237183,1877.0
14.920740842819214,1829.0
14.924181699752808,1849.0
14.927548170089722,1893.0
14.932100534439087,1874.0
14.936811923980713,1824.0
14.940554857254028,1843.0
14.942578315734863,1896.0
14.94814395904541,1881.0
14.952186107635498,1813.0
14.95621395111084,1817.0
14.958231687545776,1880.0
14.9646155834198,1875.0
14.968196153640747,1811.0
14.972243309020996,1805.0
14.97629189491272,1867.0
14.980336427688599,1883.0
14.984119892120361,1843.0
14.984119892120361,1830.0
14.993542194366455,1896.0
14.997586250305176,1937.0
15.001628160476685,1895.0
15.005673170089722,1867.0
15.00971007347107,1931.0
15.013753890991211,2001.0
15.015533685684204,1971.0
15.015533685684204,1944.0
15.025086402893066,1993.0
15.02829885482788,2067.0
15.03307843208313,2043.0
15.037285327911377,1991.0
15.042052268981934,2005.0
15.044763088226318,2069.0
15.049603700637817,2073.0
15.053321123123169,2009.0
15.056668758392334,2005.0
15.061695337295532,2059.0
15.065488815307617,2063.0
15.069095611572266,2003.0
15.073933124542236,1989.0
15.075964450836182,2029.0
15.078078031539917,2043.0
15.083469152450562,1989.0
15.087811708450317,1961.0
15.092945337295532,2011.0
15.093981742858887,2057.0
15.093981742858887,2003.0
15.105424404144287,1959.0
15.10845136642456,1999.0
15.112958192825317,2043.0
15.112958192825317,2005.0
15.121805191040039,1957.0
15.125310897827148,1997.0
15.129613637924194,2055.0
15.132670640945435,2011.0
15.137266159057617,1947.0
15.1413094997406,1959.0
15.14536428451538,2017.0
15.14941954612732,2011.0
15.153200626373291,1948.0
15.157244205474854,1949.0
15.161288499832153,2009.0
15.164257526397705,2020.0
15.169321775436401,1963.0
15.173397541046143,1945.0
15.177035808563232,1995.0
15.181721448898315,2005.0
15.185774803161621,1949.0
15.189440488815308,1933.0
15.193769216537476,1991.0
15.197563171386719,2025.0
15.201629161834717,1966.0
15.204378604888916,1925.0
15.208301305770874,1963.0
15.21320652961731,2008.0
15.216793537139893,1971.0
15.221304893493652,1925.0
15.225057601928711,1961.0
15.22652268409729,2013.0
15.232640981674194,1977.0
15.23757553100586,1908.0
15.241626024246216,1933.0
15.245694875717163,1997.0
15.249756574630737,1990.0
15.253416061401367,1925.0
15.257915019989014,1919.0
15.259938716888428,1979.0
15.264001369476318,1981.0
15.268700361251831,1920.0
15.272487878799438,1912.0
15.276540756225586,1975.0
15.280606031417847,1991.0
15.280606031417847,1928.0
15.29003095626831,1896.0
15.293110370635986,1945.0
15.29649305343628,1979.0
15.300164937973022,1939.0
15.304614543914795,1906.0
15.306613445281982,1942.0
15.312753677368164,1977.0
15.312753677368164,1939.0
15.321017265319824,1891.0
15.323052167892456,1927.0
15.329211711883545,1965.0
15.33383059501648,1939.0
15.337507247924805,1887.0
15.338425636291504,1915.0
15.338425636291504,1975.0
15.345632076263428,1961.0
15.345632076263428,1895.0
15.355558633804321,1899.0
15.358458280563354,1971.0
15.362037420272827,1973.0
15.362037420272827,1909.0
15.371007919311523,1886.0
15.371007919311523,1941.0
15.3788001537323,1963.0
15.3788001537323,1919.0
15.388421773910522,1903.0
15.392128467559814,1957.0
15.395174980163574,1995.0
15.395174980163574,1970.0
15.40385365486145,1961.0
15.40385365486145,2019.0
15.41169261932373,2067.0
15.41169261932373,2021.0
15.417874336242676,1973.0
15.42546272277832,2003.0
15.42546272277832,2067.0
15.432864904403687,2029.0
15.438194513320923,1961.0
15.439708232879639,1959.0
15.439708232879639,2011.0
15.447956323623657,2008.0
15.447956323623657,1931.0
15.45641565322876,1903.0
15.45641565322876,1931.0
15.464875936508179,1928.0
15.464875936508179,1864.0
15.473133563995361,1849.0
15.473133563995361,1899.0
15.481537342071533,1917.0
15.485069990158081,1863.0
15.489227771759033,1835.0
15.49331021308899,1887.0
15.495331048965454,1929.0
15.495331048965454,1895.0
15.50402283668518,1849.0
15.50806975364685,1887.0
15.512112617492676,1932.0
15.515398740768433,1894.0
15.520669937133789,1846.0
15.520669937133789,1875.0
15.527984619140625,1907.0
15.53289794921875,1839.0
15.537413358688354,1752.0
15.541552066802979,1805.0
15.543578624725342,1927.0
15.549646377563477,1991.0
15.552192687988281,2089.0
15.556235074996948,2406.0
15.560270547866821,3027.0
15.560270547866821,3484.0
15.56809139251709,3285.0
15.57410192489624,2715.0
15.576136827468872,2105.0
15.581178665161133,1621.0
15.584220886230469,1369.0
15.589170455932617,1351.0
15.592423439025879,1471.0
15.592423439025879,1580.0
15.599498987197876,1613.0
15.60592770576477,1659.0
15.607951879501343,1770.0
15.613285064697266,1847.0
15.615331172943115,1829.0
15.615331172943115,1785.0
15.624464273452759,1822.0
15.627885341644287,1880.0
15.633181095123291,1848.0
15.633181095123291,1787.0
15.63910460472107,1799.0
15.63910460472107,1866.0
15.647260189056396,1862.0
15.647260189056396,1802.0
15.647260189056396,1803.0
15.647260189056396,1871.0
15.665663480758667,1871.0
15.665663480758667,1812.0
15.672261714935303,1789.0
15.676335573196411,1840.0
15.681483030319214,1863.0
15.683520317077637,1801.0
15.689656734466553,1773.0
15.693517446517944,1831.0
15.697561979293823,1864.0
15.701604127883911,1811.0
15.705398321151733,1771.0
15.707420349121094,1815.0
15.707420349121094,1862.0
15.707420349121094,1829.0
15.719220161437988,1773.0
15.72292423248291,1806.0
15.72292423248291,1853.0
15.733191728591919,1831.0
15.734977006912231,1769.0
15.741169691085815,1784.0
15.745220184326172,1837.0
15.745220184326172,1831.0
15.750621557235718,1779.0
15.755743026733398,1774.0
15.757768869400024,1821.0
15.757768869400024,1815.0
15.766280174255371,1753.0
15.766280174255371,1741.0
15.766280174255371,1814.0
15.766280174255371,1840.0
15.78201150894165,1791.0
15.78957724571228,1769.0
15.78957724571228,1820.0
15.78957724571228,1860.0
15.797937870025635,1828.0
15.797937870025635,1801.0
15.797937870025635,1852.0
15.797937870025635,1913.0
15.815901041030884,1891.0
15.815901041030884,1850.0
15.822935104370117,1893.0
15.829415082931519,1964.0
15.829415082931519,1963.0
15.833540439605713,1917.0
15.840526103973389,1941.0
15.845149278640747,1999.0
15.84919786453247,2002.0
15.84919786453247,1951.0
15.855394124984741,1952.0
15.861139059066772,2008.0
15.861139059066772,2009.0
15.861139059066772,1948.0
15.872330904006958,1931.0
15.876392126083374,1981.0
15.876392126083374,1997.0
15.876392126083374,1945.0
15.88871455192566,1915.0
15.892172813415527,1967.0
15.894202470779419,2009.0
15.901669263839722,1963.0
15.90570855140686,1917.0
15.90975046157837,1951.0
15.911778688430786,1991.0
15.91423511505127,1957.0
15.920735120773315,1913.0
15.925818920135498,1949.0
15.927846670150757,1997.0
15.933420181274414,1975.0
15.933420181274414,1915.0
15.94173526763916,1931.0
15.943759441375732,1983.0
15.947797536849976,1974.0
15.951851844787598,1911.0
15.957668781280518,1917.0
15.95969820022583,1977.0
15.963752746582031,1977.0
15.967529773712158,1913.0
15.971326112747192,1893.0
15.976650953292847,1949.0
15.978668451309204,1965.0
15.978668451309204,1910.0
15.987502098083496,1890.0
15.990830659866333,1945.0
15.990830659866333,1979.0
16.000901699066162,1927.0
16.004669904708862,1881.0
16.008708953857422,1919.0
16.01273274421692,1971.0
16.016759634017944,1944.0
16.0205340385437,1891.0
16.02255606651306,1915.0
16.02255606651306,1964.0
16.033331394195557,1935.0
16.03435206413269,1876.0
16.040738821029663,1898.0
16.044768571853638,1960.0
16.048795461654663,1945.0
16.05233335494995,1883.0
16.05636739730835,1883.0
16.05636739730835,1941.0
16.05636739730835,1945.0
16.066325187683105,1884.0
16.073256969451904,1866.0
16.073256969451904,1918.0
16.073256969451904,1945.0
16.083463668823242,1895.0
16.088740348815918,1870.0
16.09369206428528,1913.0
16.09369206428528,1945.0
16.098081588745117,1898.0
16.1051185131073,1869.0
16.108337879180908,1915.0
16.112973928451538,1965.0
